wavenumber_cm1,absorbance
453.0000,0.013112
454.0000,0.012504
455.0000,0.011901
456.0000,0.011303
457.0000,0.010710
458.0000,0.010122
459.0000,0.009530
460.0000,0.008957
461.0000,0.008378
462.0000,0.007807
463.0000,0.007250
464.0000,0.006713
465.0000,0.006175
466.0000,0.005680
467.0000,0.005239
468.0000,0.004872
469.0000,0.004566
470.0000,0.004312
471.0000,0.004101
472.0000,0.003910
473.0000,0.003745
474.0000,0.003586
475.0000,0.003434
476.0000,0.003317
477.0000,0.003250
478.0000,0.003172
479.0000,0.003139
480.0000,0.003140
481.0000,0.003166
482.0000,0.002751
483.0000,0.002661
484.0000,0.003231
485.0000,0.004430
486.0000,0.006150
487.0000,0.008275
488.0000,0.010575
489.0000,0.012893
490.0000,0.014990
491.0000,0.016586
492.0000,0.017395
493.0000,0.018243
494.0000,0.019117
495.0000,0.019926
496.0000,0.020708
497.0000,0.021476
498.0000,0.022173
499.0000,0.022833
500.0000,0.023495
501.0000,0.024145
502.0000,0.024796
503.0000,0.025445
504.0000,0.026079
505.0000,0.026746
506.0000,0.027431
507.0000,0.028096
508.0000,0.028711
509.0000,0.029321
510.0000,0.029922
511.0000,0.030508
512.0000,0.031121
513.0000,0.031793
514.0000,0.032521
515.0000,0.033330
516.0000,0.034202
517.0000,0.035154
518.0000,0.036166
519.0000,0.037224
520.0000,0.038317
521.0000,0.039417
522.0000,0.040508
523.0000,0.041612
524.0000,0.042697
525.0000,0.043793
526.0000,0.044900
527.0000,0.046026
528.0000,0.047175
529.0000,0.048329
530.0000,0.049451
531.0000,0.050629
532.0000,0.051906
533.0000,0.053318
534.0000,0.054908
535.0000,0.056808
536.0000,0.059124
537.0000,0.061863
538.0000,0.064946
539.0000,0.068255
540.0000,0.071566
541.0000,0.074746
542.0000,0.077906
543.0000,0.081144
544.0000,0.084671
545.0000,0.088644
546.0000,0.093105
547.0000,0.098011
548.0000,0.103113
549.0000,0.107701
550.0000,0.111292
551.0000,0.113581
552.0000,0.114595
553.0000,0.114537
554.0000,0.113274
555.0000,0.111127
556.0000,0.107788
557.0000,0.099471
558.0000,0.087221
559.0000,0.072282
560.0000,0.056563
561.0000,0.041725
562.0000,0.029203
563.0000,0.020261
564.0000,0.015320
565.0000,0.014360
566.0000,0.015425
567.0000,0.014774
568.0000,0.014046
569.0000,0.013297
570.0000,0.012617
571.0000,0.011979
572.0000,0.011359
573.0000,0.010804
574.0000,0.010295
575.0000,0.009808
576.0000,0.009349
577.0000,0.008923
578.0000,0.008526
579.0000,0.008159
580.0000,0.007784
581.0000,0.007438
582.0000,0.007142
583.0000,0.006921
584.0000,0.006746
585.0000,0.006623
586.0000,0.006543
587.0000,0.006489
588.0000,0.006438
589.0000,0.006391
590.0000,0.006330
591.0000,0.006274
592.0000,0.006209
593.0000,0.006141
594.0000,0.006061
595.0000,0.005966
596.0000,0.005870
597.0000,0.005758
598.0000,0.005667
599.0000,0.005621
600.0000,0.005620
601.0000,0.005648
602.0000,0.005720
603.0000,0.005861
604.0000,0.006084
605.0000,0.006447
606.0000,0.006890
607.0000,0.007291
608.0000,0.007594
609.0000,0.007711
610.0000,0.007605
611.0000,0.007212
612.0000,0.006609
613.0000,0.005869
614.0000,0.005075
615.0000,0.004396
616.0000,0.003849
617.0000,0.003386
618.0000,0.003176
619.0000,0.003093
620.0000,0.003113
621.0000,0.003194
622.0000,0.003327
623.0000,0.003452
624.0000,0.003542
625.0000,0.003608
626.0000,0.003670
627.0000,0.003734
628.0000,0.003925
629.0000,0.004111
630.0000,0.004331
631.0000,0.004587
632.0000,0.004879
633.0000,0.005195
634.0000,0.005522
635.0000,0.005844
636.0000,0.006160
637.0000,0.006473
638.0000,0.006813
639.0000,0.007165
640.0000,0.007598
641.0000,0.008168
642.0000,0.008856
643.0000,0.009750
644.0000,0.010957
645.0000,0.012463
646.0000,0.014072
647.0000,0.015632
648.0000,0.016931
649.0000,0.017669
650.0000,0.018390
651.0000,0.019290
652.0000,0.020576
653.0000,0.020958
654.0000,0.021664
655.0000,0.025286
656.0000,0.033796
657.0000,0.048677
658.0000,0.071016
659.0000,0.106552
660.0000,0.149947
661.0000,0.196056
662.0000,0.238014
663.0000,0.293237
664.0000,0.309916
665.0000,0.294326
666.0000,0.253613
667.0000,0.196787
668.0000,0.134829
669.0000,0.080647
670.0000,0.036383
671.0000,0.007262
672.0000,0.000000
673.0000,0.023571
674.0000,0.028522
675.0000,0.038330
676.0000,0.055186
677.0000,0.076554
678.0000,0.099551
679.0000,0.125214
680.0000,0.144883
681.0000,0.153217
682.0000,0.148046
683.0000,0.131730
684.0000,0.108612
685.0000,0.083534
686.0000,0.061861
687.0000,0.044539
688.0000,0.034069
689.0000,0.033163
690.0000,0.035025
691.0000,0.035702
692.0000,0.035209
693.0000,0.038089
694.0000,0.047630
695.0000,0.065703
696.0000,0.094039
697.0000,0.133191
698.0000,0.182678
699.0000,0.251662
700.0000,0.347856
701.0000,0.455583
702.0000,0.573914
703.0000,0.689977
704.0000,0.809601
705.0000,0.904812
706.0000,0.944956
707.0000,0.920701
708.0000,0.837719
709.0000,0.718130
710.0000,0.580022
711.0000,0.428328
712.0000,0.289634
713.0000,0.178653
714.0000,0.115587
715.0000,0.077946
716.0000,0.051763
717.0000,0.036509
718.0000,0.029643
719.0000,0.027744
720.0000,0.026789
721.0000,0.023939
722.0000,0.021819
723.0000,0.020049
724.0000,0.018533
725.0000,0.017013
726.0000,0.015748
727.0000,0.014701
728.0000,0.013815
729.0000,0.013036
730.0000,0.012397
731.0000,0.011845
732.0000,0.011324
733.0000,0.010743
734.0000,0.010196
735.0000,0.009654
736.0000,0.009132
737.0000,0.008626
738.0000,0.008149
739.0000,0.007676
740.0000,0.007222
741.0000,0.006771
742.0000,0.006320
743.0000,0.005876
744.0000,0.005468
745.0000,0.005078
746.0000,0.004735
747.0000,0.004435
748.0000,0.004158
749.0000,0.003896
750.0000,0.003663
751.0000,0.003451
752.0000,0.003265
753.0000,0.003130
754.0000,0.003046
755.0000,0.002984
756.0000,0.002987
757.0000,0.003005
758.0000,0.003028
759.0000,0.003053
760.0000,0.003102
761.0000,0.003172
762.0000,0.003264
763.0000,0.003383
764.0000,0.003498
765.0000,0.003604
766.0000,0.003721
767.0000,0.003803
768.0000,0.003911
769.0000,0.004069
770.0000,0.004318
771.0000,0.004649
772.0000,0.005070
773.0000,0.005589
774.0000,0.006167
775.0000,0.006774
776.0000,0.007391
777.0000,0.008015
778.0000,0.008697
779.0000,0.009442
780.0000,0.010265
781.0000,0.011146
782.0000,0.012072
783.0000,0.013044
784.0000,0.014070
785.0000,0.015157
786.0000,0.016323
787.0000,0.017482
788.0000,0.018681
789.0000,0.020099
790.0000,0.021824
791.0000,0.023911
792.0000,0.026175
793.0000,0.029096
794.0000,0.032248
795.0000,0.038506
796.0000,0.047029
797.0000,0.056585
798.0000,0.066032
799.0000,0.074399
800.0000,0.080433
801.0000,0.082513
802.0000,0.082424
803.0000,0.083271
804.0000,0.090849
805.0000,0.094556
806.0000,0.093750
807.0000,0.088935
808.0000,0.080593
809.0000,0.069301
810.0000,0.055604
811.0000,0.040928
812.0000,0.029793
813.0000,0.025363
814.0000,0.028266
815.0000,0.025639
816.0000,0.023085
817.0000,0.020778
818.0000,0.018781
819.0000,0.017156
820.0000,0.015916
821.0000,0.015079
822.0000,0.014565
823.0000,0.014296
824.0000,0.014174
825.0000,0.014079
826.0000,0.013917
827.0000,0.013758
828.0000,0.013567
829.0000,0.013347
830.0000,0.013129
831.0000,0.012879
832.0000,0.012595
833.0000,0.012298
834.0000,0.012083
835.0000,0.011748
836.0000,0.011477
837.0000,0.011283
838.0000,0.011132
839.0000,0.011079
840.0000,0.011131
841.0000,0.011268
842.0000,0.011479
843.0000,0.011761
844.0000,0.012120
845.0000,0.012364
846.0000,0.012771
847.0000,0.013166
848.0000,0.013337
849.0000,0.013175
850.0000,0.012532
851.0000,0.011448
852.0000,0.009885
853.0000,0.008106
854.0000,0.006383
855.0000,0.004963
856.0000,0.004059
857.0000,0.003648
858.0000,0.003614
859.0000,0.003828
860.0000,0.004145
861.0000,0.004515
862.0000,0.004803
863.0000,0.005113
864.0000,0.005455
865.0000,0.005834
866.0000,0.006250
867.0000,0.006663
868.0000,0.007105
869.0000,0.007608
870.0000,0.008193
871.0000,0.008879
872.0000,0.009650
873.0000,0.010487
874.0000,0.011397
875.0000,0.012357
876.0000,0.013345
877.0000,0.014325
878.0000,0.015309
879.0000,0.016285
880.0000,0.017262
881.0000,0.018281
882.0000,0.019353
883.0000,0.020505
884.0000,0.021734
885.0000,0.023039
886.0000,0.024365
887.0000,0.025754
888.0000,0.027227
889.0000,0.028800
890.0000,0.030490
891.0000,0.032252
892.0000,0.034080
893.0000,0.036164
894.0000,0.038715
895.0000,0.041691
896.0000,0.044973
897.0000,0.048532
898.0000,0.052157
899.0000,0.055870
900.0000,0.059534
901.0000,0.063244
902.0000,0.067248
903.0000,0.071959
904.0000,0.077433
905.0000,0.083522
906.0000,0.089868
907.0000,0.096119
908.0000,0.101797
909.0000,0.106860
910.0000,0.111503
911.0000,0.115957
912.0000,0.120714
913.0000,0.126272
914.0000,0.132853
915.0000,0.140407
916.0000,0.148661
917.0000,0.157367
918.0000,0.165943
919.0000,0.173996
920.0000,0.181278
921.0000,0.187844
922.0000,0.193624
923.0000,0.200332
924.0000,0.208972
925.0000,0.220078
926.0000,0.233237
927.0000,0.247571
928.0000,0.261268
929.0000,0.273507
930.0000,0.283802
931.0000,0.289983
932.0000,0.290103
933.0000,0.283925
934.0000,0.272479
935.0000,0.258203
936.0000,0.242855
937.0000,0.228281
938.0000,0.215304
939.0000,0.205781
940.0000,0.200110
941.0000,0.196142
942.0000,0.192174
943.0000,0.186873
944.0000,0.181277
945.0000,0.175873
946.0000,0.172993
947.0000,0.168389
948.0000,0.158329
949.0000,0.143970
950.0000,0.126677
951.0000,0.107951
952.0000,0.089377
953.0000,0.072800
954.0000,0.060084
955.0000,0.052101
956.0000,0.049730
957.0000,0.047514
958.0000,0.043965
959.0000,0.040585
960.0000,0.037486
961.0000,0.034613
962.0000,0.031953
963.0000,0.029483
964.0000,0.027310
965.0000,0.025414
966.0000,0.023752
967.0000,0.022313
968.0000,0.021056
969.0000,0.019883
970.0000,0.018700
971.0000,0.017501
972.0000,0.016342
973.0000,0.015233
974.0000,0.014167
975.0000,0.013124
976.0000,0.012131
977.0000,0.011204
978.0000,0.010343
979.0000,0.009527
980.0000,0.008720
981.0000,0.007891
982.0000,0.007453
983.0000,0.006449
984.0000,0.006059
985.0000,0.006337
986.0000,0.007366
987.0000,0.009085
988.0000,0.011319
989.0000,0.013757
990.0000,0.015833
991.0000,0.017145
992.0000,0.017563
993.0000,0.016164
994.0000,0.014395
995.0000,0.012151
996.0000,0.009791
997.0000,0.007592
998.0000,0.005791
999.0000,0.004735
1000.0000,0.004345
1001.0000,0.004381
1002.0000,0.004893
1003.0000,0.005592
1004.0000,0.006404
1005.0000,0.007204
1006.0000,0.007892
1007.0000,0.008396
1008.0000,0.008783
1009.0000,0.009292
1010.0000,0.009857
1011.0000,0.010303
1012.0000,0.010957
1013.0000,0.011593
1014.0000,0.012030
1015.0000,0.012419
1016.0000,0.014385
1017.0000,0.019159
1018.0000,0.027614
1019.0000,0.042003
1020.0000,0.060793
1021.0000,0.089774
1022.0000,0.109329
1023.0000,0.115541
1024.0000,0.109221
1025.0000,0.092485
1026.0000,0.069644
1027.0000,0.044475
1028.0000,0.021816
1029.0000,0.007190
1030.0000,0.002496
1031.0000,0.010211
1032.0000,0.011925
1033.0000,0.012169
1034.0000,0.012419
1035.0000,0.012623
1036.0000,0.012977
1037.0000,0.013179
1038.0000,0.013399
1039.0000,0.013613
1040.0000,0.013857
1041.0000,0.014121
1042.0000,0.014381
1043.0000,0.014621
1044.0000,0.014812
1045.0000,0.014950
1046.0000,0.015037
1047.0000,0.015084
1048.0000,0.015094
1049.0000,0.015095
1050.0000,0.015159
1051.0000,0.015217
1052.0000,0.015384
1053.0000,0.015752
1054.0000,0.016429
1055.0000,0.017428
1056.0000,0.018714
1057.0000,0.020347
1058.0000,0.022345
1059.0000,0.024781
1060.0000,0.027423
1061.0000,0.030075
1062.0000,0.033607
1063.0000,0.038602
1064.0000,0.045457
1065.0000,0.055466
1066.0000,0.068198
1067.0000,0.082205
1068.0000,0.093874
1069.0000,0.100474
1070.0000,0.099981
1071.0000,0.090446
1072.0000,0.074632
1073.0000,0.055427
1074.0000,0.036089
1075.0000,0.020540
1076.0000,0.010126
1077.0000,0.004825
1078.0000,0.002765
1079.0000,0.002851
1080.0000,0.003611
1081.0000,0.003295
1082.0000,0.003212
1083.0000,0.003300
1084.0000,0.003407
1085.0000,0.003648
1086.0000,0.003862
1087.0000,0.004003
1088.0000,0.004514
1089.0000,0.005675
1090.0000,0.007950
1091.0000,0.011198
1092.0000,0.015722
1093.0000,0.020382
1094.0000,0.024086
1095.0000,0.025841
1096.0000,0.024915
1097.0000,0.021706
1098.0000,0.017198
1099.0000,0.012251
1100.0000,0.007938
1101.0000,0.004799
1102.0000,0.003700
1103.0000,0.003290
1104.0000,0.003517
1105.0000,0.003783
1106.0000,0.003990
1107.0000,0.004438
1108.0000,0.005119
1109.0000,0.006045
1110.0000,0.007283
1111.0000,0.008681
1112.0000,0.010377
1113.0000,0.011960
1114.0000,0.014103
1115.0000,0.016085
1116.0000,0.018728
1117.0000,0.022924
1118.0000,0.029316
1119.0000,0.039426
1120.0000,0.052625
1121.0000,0.067158
1122.0000,0.082771
1123.0000,0.097313
1124.0000,0.106736
1125.0000,0.107129
1126.0000,0.098338
1127.0000,0.082936
1128.0000,0.064186
1129.0000,0.045876
1130.0000,0.029791
1131.0000,0.017627
1132.0000,0.011371
1133.0000,0.009895
1134.0000,0.010228
1135.0000,0.010259
1136.0000,0.009615
1137.0000,0.009105
1138.0000,0.008802
1139.0000,0.008613
1140.0000,0.008530
1141.0000,0.008449
1142.0000,0.008345
1143.0000,0.008170
1144.0000,0.008244
1145.0000,0.008316
1146.0000,0.008378
1147.0000,0.008425
1148.0000,0.008476
1149.0000,0.008537
1150.0000,0.008631
1151.0000,0.008697
1152.0000,0.008797
1153.0000,0.008946
1154.0000,0.009470
1155.0000,0.010055
1156.0000,0.010892
1157.0000,0.012028
1158.0000,0.013472
1159.0000,0.015153
1160.0000,0.016819
1161.0000,0.018259
1162.0000,0.019876
1163.0000,0.021622
1164.0000,0.024356
1165.0000,0.028700
1166.0000,0.035149
1167.0000,0.043896
1168.0000,0.055000
1169.0000,0.069204
1170.0000,0.084521
1171.0000,0.099463
1172.0000,0.111775
1173.0000,0.118670
1174.0000,0.120850
1175.0000,0.118507
1176.0000,0.113397
1177.0000,0.107759
1178.0000,0.104799
1179.0000,0.106087
1180.0000,0.113588
1181.0000,0.123580
1182.0000,0.125259
1183.0000,0.116944
1184.0000,0.100957
1185.0000,0.079249
1186.0000,0.055206
1187.0000,0.032355
1188.0000,0.014409
1189.0000,0.003454
1190.0000,0.002119
1191.0000,0.004668
1192.0000,0.004386
1193.0000,0.003800
1194.0000,0.003477
1195.0000,0.003473
1196.0000,0.003656
1197.0000,0.004039
1198.0000,0.004587
1199.0000,0.005230
1200.0000,0.006011
1201.0000,0.006931
1202.0000,0.007835
1203.0000,0.008877
1204.0000,0.009775
1205.0000,0.010458
1206.0000,0.010847
1207.0000,0.010885
1208.0000,0.010492
1209.0000,0.009728
1210.0000,0.008692
1211.0000,0.007540
1212.0000,0.006340
1213.0000,0.005372
1214.0000,0.004496
1215.0000,0.003793
1216.0000,0.003330
1217.0000,0.003102
1218.0000,0.003030
1219.0000,0.003136
1220.0000,0.003362
1221.0000,0.003708
1222.0000,0.004139
1223.0000,0.004647
1224.0000,0.005195
1225.0000,0.005785
1226.0000,0.006449
1227.0000,0.007224
1228.0000,0.008141
1229.0000,0.009223
1230.0000,0.010461
1231.0000,0.011877
1232.0000,0.013429
1233.0000,0.014936
1234.0000,0.016497
1235.0000,0.018255
1236.0000,0.020286
1237.0000,0.022692
1238.0000,0.025510
1239.0000,0.028752
1240.0000,0.032340
1241.0000,0.036199
1242.0000,0.040217
1243.0000,0.044130
1244.0000,0.048002
1245.0000,0.051776
1246.0000,0.055492
1247.0000,0.058959
1248.0000,0.062037
1249.0000,0.064666
1250.0000,0.066834
1251.0000,0.068495
1252.0000,0.069835
1253.0000,0.071043
1254.0000,0.072266
1255.0000,0.073772
1256.0000,0.075559
1257.0000,0.078585
1258.0000,0.082640
1259.0000,0.087426
1260.0000,0.092794
1261.0000,0.098382
1262.0000,0.103334
1263.0000,0.109115
1264.0000,0.115347
1265.0000,0.122689
1266.0000,0.132477
1267.0000,0.146610
1268.0000,0.163555
1269.0000,0.181653
1270.0000,0.199452
1271.0000,0.215235
1272.0000,0.226885
1273.0000,0.236104
1274.0000,0.243597
1275.0000,0.251760
1276.0000,0.263205
1277.0000,0.279489
1278.0000,0.300290
1279.0000,0.325233
1280.0000,0.353823
1281.0000,0.385072
1282.0000,0.417159
1283.0000,0.454631
1284.0000,0.499717
1285.0000,0.547309
1286.0000,0.592751
1287.0000,0.632719
1288.0000,0.664592
1289.0000,0.686158
1290.0000,0.698050
1291.0000,0.700132
1292.0000,0.688386
1293.0000,0.667804
1294.0000,0.639564
1295.0000,0.601666
1296.0000,0.557134
1297.0000,0.512515
1298.0000,0.469877
1299.0000,0.428698
1300.0000,0.390140
1301.0000,0.350110
1302.0000,0.304647
1303.0000,0.258485
1304.0000,0.214512
1305.0000,0.176194
1306.0000,0.147744
1307.0000,0.133165
1308.0000,0.129559
1309.0000,0.132719
1310.0000,0.139190
1311.0000,0.144186
1312.0000,0.147462
1313.0000,0.152746
1314.0000,0.161880
1315.0000,0.176575
1316.0000,0.198376
1317.0000,0.228596
1318.0000,0.267769
1319.0000,0.324675
1320.0000,0.389310
1321.0000,0.457835
1322.0000,0.520869
1323.0000,0.564338
1324.0000,0.579585
1325.0000,0.563414
1326.0000,0.517566
1327.0000,0.447987
1328.0000,0.365427
1329.0000,0.289100
1330.0000,0.220885
1331.0000,0.171575
1332.0000,0.138823
1333.0000,0.115603
1334.0000,0.100685
1335.0000,0.092156
1336.0000,0.086903
1337.0000,0.082247
1338.0000,0.076426
1339.0000,0.070929
1340.0000,0.065578
1341.0000,0.060781
1342.0000,0.056578
1343.0000,0.052992
1344.0000,0.049937
1345.0000,0.046991
1346.0000,0.043520
1347.0000,0.039968
1348.0000,0.036343
1349.0000,0.032711
1350.0000,0.029178
1351.0000,0.025865
1352.0000,0.022813
1353.0000,0.019896
1354.0000,0.017157
1355.0000,0.014591
1356.0000,0.012242
1357.0000,0.010186
1358.0000,0.008416
1359.0000,0.006897
1360.0000,0.005679
1361.0000,0.004747
1362.0000,0.004010
1363.0000,0.003425
1364.0000,0.003057
1365.0000,0.002897
1366.0000,0.002937
1367.0000,0.003173
1368.0000,0.003542
1369.0000,0.003999
1370.0000,0.004583
1371.0000,0.005247
1372.0000,0.005951
1373.0000,0.006647
1374.0000,0.007364
1375.0000,0.008109
1376.0000,0.008854
1377.0000,0.009547
1378.0000,0.010144
1379.0000,0.010535
1380.0000,0.010812
1381.0000,0.011131
1382.0000,0.011139
1383.0000,0.011482
1384.0000,0.012911
1385.0000,0.015655
1386.0000,0.019707
1387.0000,0.024966
1388.0000,0.031269
1389.0000,0.037816
1390.0000,0.044437
1391.0000,0.050736
1392.0000,0.056149
1393.0000,0.061430
1394.0000,0.066660
1395.0000,0.071588
1396.0000,0.076105
1397.0000,0.080235
1398.0000,0.083634
1399.0000,0.086227
1400.0000,0.089210
1401.0000,0.092289
1402.0000,0.095552
1403.0000,0.100085
1404.0000,0.106332
1405.0000,0.114654
1406.0000,0.125140
1407.0000,0.137668
1408.0000,0.151767
1409.0000,0.167517
1410.0000,0.184914
1411.0000,0.202801
1412.0000,0.220351
1413.0000,0.240138
1414.0000,0.262875
1415.0000,0.286211
1416.0000,0.308380
1417.0000,0.328057
1418.0000,0.343416
1419.0000,0.354042
1420.0000,0.360345
1421.0000,0.366011
1422.0000,0.365032
1423.0000,0.356404
1424.0000,0.337942
1425.0000,0.307157
1426.0000,0.267823
1427.0000,0.224265
1428.0000,0.180764
1429.0000,0.142589
1430.0000,0.114639
1431.0000,0.098349
1432.0000,0.086387
1433.0000,0.076601
1434.0000,0.067120
1435.0000,0.057264
1436.0000,0.048743
1437.0000,0.042637
1438.0000,0.039505
1439.0000,0.038666
1440.0000,0.038101
1441.0000,0.038979
1442.0000,0.043934
1443.0000,0.054719
1444.0000,0.073097
1445.0000,0.100205
1446.0000,0.142830
1447.0000,0.194237
1448.0000,0.252426
1449.0000,0.307918
1450.0000,0.343138
1451.0000,0.349098
1452.0000,0.324112
1453.0000,0.275710
1454.0000,0.213197
1455.0000,0.148458
1456.0000,0.096243
1457.0000,0.058247
1458.0000,0.041136
1459.0000,0.038726
1460.0000,0.038797
1461.0000,0.035817
1462.0000,0.030219
1463.0000,0.024907
1464.0000,0.019867
1465.0000,0.015407
1466.0000,0.011902
1467.0000,0.009585
1468.0000,0.007766
1469.0000,0.006346
1470.0000,0.005399
1471.0000,0.004806
1472.0000,0.004316
1473.0000,0.003893
1474.0000,0.003540
1475.0000,0.003315
1476.0000,0.003207
1477.0000,0.003196
1478.0000,0.003190
1479.0000,0.003298
1480.0000,0.003556
1481.0000,0.003944
1482.0000,0.004488
1483.0000,0.005359
1484.0000,0.006431
1485.0000,0.007725
1486.0000,0.008981
1487.0000,0.009525
1488.0000,0.010721
1489.0000,0.014750
1490.0000,0.020692
1491.0000,0.027803
1492.0000,0.037239
1493.0000,0.044359
1494.0000,0.046990
1495.0000,0.045277
1496.0000,0.039438
1497.0000,0.030349
1498.0000,0.021073
1499.0000,0.013985
1500.0000,0.008747
1501.0000,0.006470
1502.0000,0.007843
1503.0000,0.008387
1504.0000,0.008199
1505.0000,0.008181
1506.0000,0.008302
1507.0000,0.008502
1508.0000,0.008759
1509.0000,0.009104
1510.0000,0.009525
1511.0000,0.010124
1512.0000,0.010872
1513.0000,0.011737
1514.0000,0.012846
1515.0000,0.014190
1516.0000,0.015654
1517.0000,0.017057
1518.0000,0.018308
1519.0000,0.019347
1520.0000,0.020102
1521.0000,0.020526
1522.0000,0.020682
1523.0000,0.020662
1524.0000,0.020627
1525.0000,0.020620
1526.0000,0.020639
1527.0000,0.020658
1528.0000,0.020687
1529.0000,0.020743
1530.0000,0.020814
1531.0000,0.020900
1532.0000,0.020981
