wavenumber_cm1,absorbance
399.6747,0.355926
400.1569,0.530512
400.6390,0.676123
401.1211,0.792761
401.6032,0.880424
402.0853,0.939113
402.5674,0.874313
403.0496,0.881125
403.5317,0.888427
404.0138,0.895857
404.4959,0.903213
404.9780,0.910483
405.4601,0.917753
405.9423,0.925045
406.4244,0.932215
406.9065,0.938885
407.3886,0.944551
407.8707,0.948780
408.3528,0.951512
408.8350,0.952893
409.3171,0.953329
409.7992,0.953289
410.2813,0.953147
410.7634,0.953114
411.2455,0.953178
411.7277,0.953086
412.2098,0.952737
412.6919,0.952085
413.1740,0.951262
413.6561,0.950314
414.1382,0.949315
414.6204,0.948239
415.1025,0.946960
415.5846,0.945300
416.0667,0.943089
416.5488,0.940506
417.0309,0.937988
417.5131,0.935836
417.9952,0.934285
418.4773,0.933431
418.9594,0.933219
419.4415,0.933380
419.9236,0.933813
420.4058,0.934327
420.8879,0.934876
421.3700,0.935654
421.8521,0.936645
422.3342,0.937745
422.8163,0.938822
423.2985,0.939711
423.7806,0.940238
424.2627,0.940330
424.7448,0.940161
425.2269,0.939722
425.7090,0.939004
426.1912,0.937925
426.6733,0.936303
427.1554,0.934090
427.6375,0.931361
428.1196,0.928292
428.6017,0.925051
429.0839,0.921910
429.5660,0.919037
430.0481,0.916523
430.5302,0.914451
431.0123,0.912937
431.4944,0.912233
431.9766,0.912670
432.4587,0.914564
432.9408,0.918040
433.4229,0.922889
433.9050,1.000000
434.3871,0.988547
434.8693,0.906998
435.3514,0.774457
435.8335,0.610324
436.3156,0.434235
436.7977,0.265989
437.2798,0.125479
437.7620,0.032683
438.2441,0.007698
438.7262,0.070807
439.2083,0.061784
439.6904,0.052216
440.1725,0.043403
440.6547,0.036295
441.1368,0.031435
441.6189,0.028968
442.1010,0.028620
442.5831,0.030092
443.0652,0.032678
443.5474,0.035748
444.0295,0.038554
444.5116,0.041206
444.9937,0.043764
445.4758,0.046143
445.9579,0.048204
446.4401,0.049914
446.9222,0.051319
447.4043,0.052549
447.8864,0.053561
448.3685,0.054530
448.8506,0.055547
449.3328,0.056558
449.8149,0.057404
450.2970,0.057889
450.7791,0.057861
451.2612,0.057304
451.7433,0.056275
452.2255,0.054857
452.7076,0.053251
453.1897,0.051608
453.6718,0.050074
454.1539,0.048688
454.6360,0.047480
455.1182,0.046481
455.6003,0.045709
456.0824,0.045075
456.5645,0.044637
457.0466,0.044374
457.5287,0.044165
458.0109,0.044055
458.4930,0.044083
458.9751,0.044324
459.4572,0.044872
459.9393,0.045763
460.4214,0.046944
460.9036,0.048261
461.3857,0.049602
461.8678,0.050813
462.3499,0.051789
462.8320,0.052680
463.3141,0.053544
463.7963,0.054510
464.2784,0.055680
464.7605,0.057042
465.2426,0.058581
465.7247,0.060281
466.2068,0.062292
466.6890,0.064740
467.1711,0.067604
467.6532,0.070640
468.1353,0.073414
468.6174,0.075264
469.0995,0.075891
469.5817,0.075711
470.0638,0.075205
470.5459,0.074957
471.0280,0.075630
471.5101,0.077616
471.9922,0.080978
472.4744,0.085386
472.9565,0.090268
473.4386,0.094977
473.9207,0.099413
474.4028,0.103957
474.8849,0.108655
475.3671,0.113652
475.8492,0.118838
476.3313,0.124023
476.8134,0.128862
477.2955,0.133086
477.7776,0.136541
478.2598,0.139143
478.7419,0.140798
479.2240,0.141593
479.7061,0.141892
480.1882,0.142118
480.6703,0.142371
481.1525,0.142748
481.6346,0.143190
482.1167,0.143760
482.5988,0.144512
483.0809,0.145313
483.5630,0.145998
484.0452,0.146458
484.5273,0.146826
485.0094,0.147121
485.4915,0.147329
485.9736,0.147484
486.4557,0.147610
486.9379,0.147793
487.4200,0.148169
487.9021,0.148750
488.3842,0.149563
488.8663,0.150519
489.3484,0.151552
489.8306,0.152572
490.3127,0.153611
490.7948,0.154564
491.2769,0.155469
491.7590,0.156228
492.2411,0.156857
492.7233,0.157321
493.2054,0.157706
493.6875,0.158159
494.1696,0.158599
494.6517,0.158975
495.1339,0.159354
495.6160,0.159563
496.0981,0.159591
496.5802,0.159502
497.0623,0.159304
497.5444,0.159090
498.0266,0.159035
498.5087,0.159250
498.9908,0.159522
499.4729,0.159672
499.9550,0.159582
500.4371,0.159052
500.9193,0.158123
501.4014,0.157031
501.8835,0.155854
502.3656,0.154774
502.8477,0.153876
503.3299,0.153219
503.8120,0.152653
504.2941,0.151976
504.7762,0.151090
505.2583,0.149974
505.7404,0.148474
506.2226,0.146602
506.7047,0.144764
507.1868,0.143294
507.6689,0.142495
508.1510,0.142409
508.6331,0.142860
509.1153,0.143745
509.5974,0.144863
510.0795,0.145931
510.5616,0.146504
511.0437,0.146449
511.5258,0.145996
512.0079,0.145235
512.4901,0.144255
512.9722,0.142953
513.4543,0.141320
513.9364,0.139432
514.4185,0.137304
514.9006,0.135045
515.3828,0.132567
515.8649,0.129781
516.3470,0.126980
516.8291,0.124066
517.3112,0.120947
517.7933,0.117550
518.2755,0.113834
518.7576,0.109778
519.2397,0.105446
519.7218,0.100884
520.2039,0.096026
520.6860,0.090892
521.1682,0.085742
521.6503,0.080483
522.1324,0.075052
522.6145,0.069348
523.0966,0.063337
523.5787,0.056931
524.0609,0.050209
524.5430,0.043374
525.0251,0.036697
525.5072,0.030333
525.9893,0.024597
526.4714,0.019779
526.9536,0.015951
527.4357,0.013078
527.9178,0.011061
528.3999,0.009667
528.8821,0.008769
529.3641,0.008241
529.8463,0.007948
530.3284,0.007718
530.8105,0.007537
531.2926,0.007411
531.7748,0.007364
532.2568,0.007432
532.7390,0.007639
533.2211,0.007973
533.7032,0.008379
534.1853,0.008760
534.6675,0.009002
535.1495,0.008997
535.6317,0.008683
536.1138,0.008053
536.5959,0.007141
537.0780,0.006055
537.5602,0.004947
538.0422,0.003890
538.5244,0.002931
539.0065,0.002145
539.4886,0.001472
539.9707,0.000940
540.4529,0.000593
540.9349,0.000474
541.4171,0.000612
541.8992,0.001032
542.3813,0.001751
542.8634,0.002698
543.3456,0.003847
543.8276,0.005141
544.3098,0.006469
544.7919,0.007822
545.2740,0.009168
545.7561,0.010461
546.2383,0.011640
546.7203,0.012657
547.2025,0.013472
547.6846,0.014063
548.1667,0.014441
548.6488,0.014492
549.1310,0.014065
549.6130,0.013696
550.0952,0.013837
550.5773,0.014851
551.0594,0.016978
551.5415,0.020400
552.0237,0.025138
552.5057,0.031115
552.9879,0.038120
553.4700,0.045801
553.9521,0.053941
554.4342,0.062953
554.9164,0.072937
555.3984,0.083978
555.8806,0.096092
556.3627,0.109216
556.8448,0.123218
557.3269,0.137804
557.8091,0.152502
558.2911,0.166698
558.7733,0.179376
559.2554,0.189819
559.7375,0.197600
560.2196,0.202734
560.7018,0.205567
561.1838,0.206680
561.6660,0.206827
562.1481,0.206708
562.6302,0.206849
563.1123,0.207477
563.5945,0.208366
564.0765,0.209459
564.5587,0.210645
565.0408,0.211897
565.5229,0.213170
566.0050,0.214439
566.4872,0.215644
566.9692,0.216770
567.4514,0.217828
567.9335,0.218806
568.4156,0.219679
568.8977,0.220431
569.3799,0.221051
569.8619,0.221545
570.3441,0.221931
570.8262,0.222261
571.3083,0.222538
571.7904,0.222798
572.2726,0.223061
572.7546,0.223292
573.2368,0.223455
573.7189,0.223521
574.2010,0.223476
574.6831,0.223321
575.1653,0.223075
575.6473,0.222774
576.1295,0.222426
576.6116,0.222031
577.0938,0.221576
577.5758,0.221040
578.0580,0.220406
578.5400,0.219666
579.0222,0.218820
579.5043,0.217874
579.9865,0.216831
580.4685,0.215690
580.9507,0.214441
581.4327,0.213071
581.9149,0.211564
582.3970,0.209899
582.8792,0.208054
583.3612,0.205992
583.8434,0.203668
584.3254,0.201029
584.8076,0.198041
585.2897,0.194649
585.7719,0.190825
586.2539,0.186573
586.7361,0.181931
587.2181,0.176952
587.7003,0.171681
588.1824,0.166131
588.6646,0.160269
589.1466,0.154018
589.6288,0.147264
590.1108,0.139837
590.5930,0.131581
591.0751,0.122373
591.5573,0.112138
592.0393,0.100871
592.5215,0.088648
593.0035,0.075650
593.4857,0.062170
593.9678,0.048627
594.4500,0.035557
594.9320,0.023598
595.4142,0.013451
595.8962,0.005844
596.3784,0.001477
596.8605,0.000961
597.3427,0.004740
597.8247,0.013014
598.3069,0.025661
598.7889,0.042202
599.2711,0.061819
599.7532,0.083435
600.2354,0.105850
600.7174,0.127900
601.1996,0.148607
601.6816,0.167275
602.1638,0.183525
602.6459,0.197256
603.1281,0.208574
603.6101,0.217704
604.0923,0.224927
604.5743,0.230528
605.0565,0.234785
605.5386,0.237952
606.0208,0.240254
606.5029,0.241883
606.9850,0.242991
607.4671,0.243687
607.9492,0.244047
608.4313,0.244123
608.9135,0.243961
609.3956,0.243603
609.8777,0.243087
610.3598,0.242441
610.8419,0.241664
611.3240,0.240727
611.8062,0.239574
612.2883,0.238130
612.7704,0.236318
613.2525,0.234075
613.7346,0.231357
614.2167,0.228146
614.6989,0.224465
615.1810,0.220382
615.6631,0.216032
616.1452,0.211605
616.6273,0.207326
617.1094,0.203405
617.5916,0.199976
618.0737,0.197057
618.5558,0.194530
619.0379,0.192166
619.5200,0.189676
620.0021,0.186793
620.4843,0.183337
620.9664,0.179250
621.4485,0.174584
621.9306,0.169458
622.4127,0.164004
622.8948,0.158332
623.3770,0.152513
623.8591,0.146600
624.3412,0.140652
624.8233,0.134759
625.3054,0.129049
625.7875,0.123676
626.2697,0.118797
626.7518,0.114550
627.2339,0.111046
627.7160,0.108373
628.1981,0.106614
628.6802,0.105854
629.1624,0.106176
629.6445,0.107639
630.1266,0.110249
630.6087,0.113932
631.0908,0.118824
631.5729,0.124693
632.0551,0.130862
632.5372,0.136324
633.0193,0.139888
633.5014,0.140068
633.9835,0.134549
634.4656,0.125043
634.9478,0.113305
635.4299,0.101130
635.9120,0.090362
636.3941,0.082140
636.8762,0.076901
637.3583,0.074354
637.8405,0.073440
638.3226,0.072363
638.8047,0.069385
639.2868,0.066195
639.7689,0.062891
640.2510,0.059556
640.7332,0.056268
641.2153,0.053091
641.6974,0.050081
642.1795,0.047281
642.6616,0.044729
643.1437,0.042466
643.6259,0.040539
644.1080,0.039003
644.5901,0.037906
645.0722,0.037278
645.5543,0.037113
646.0364,0.037372
646.5186,0.037995
647.0007,0.038921
647.4828,0.040113
647.9649,0.041560
648.4470,0.043266
648.9291,0.045218
649.4113,0.047363
649.8934,0.049588
650.3755,0.051728
650.8576,0.053597
651.3397,0.055024
651.8218,0.055894
652.3040,0.056152
652.7861,0.055794
653.2682,0.054843
653.7503,0.053320
654.2324,0.051234
654.7145,0.048593
655.1967,0.045420
655.6788,0.041775
656.1609,0.037754
656.6430,0.033481
657.1251,0.029081
657.6072,0.024660
658.0894,0.020303
658.5715,0.016078
659.0536,0.012067
659.5357,0.008383
660.0178,0.005184
660.4999,0.002663
660.9821,0.001027
661.4642,0.000464
661.9463,0.001118
662.4284,0.003083
662.9105,0.006413
663.3926,0.011142
663.8748,0.017303
664.3569,0.024906
664.8390,0.033887
665.3211,0.043996
665.8032,0.054699
666.2853,0.065287
666.7675,0.075246
667.2496,0.084496
667.7317,0.093230
668.2138,0.101714
668.6959,0.110220
669.1780,0.119018
669.6602,0.128295
670.1423,0.138005
670.6244,0.147808
671.1065,0.157242
671.5886,0.166038
672.0707,0.174152
672.5529,0.181541
673.0350,0.188098
673.5171,0.193752
673.9992,0.198538
674.4813,0.202592
674.9634,0.206089
675.4456,0.209175
675.9277,0.211934
676.4098,0.214391
676.8919,0.216550
677.3740,0.218426
677.8561,0.220053
678.3383,0.221479
678.8204,0.222739
679.3025,0.223843
679.7846,0.224789
680.2667,0.225579
680.7488,0.226243
681.2310,0.226840
681.7131,0.227444
682.1952,0.228110
682.6773,0.228848
683.1594,0.229619
683.6415,0.230355
684.1237,0.230994
684.6058,0.231507
685.0879,0.231914
685.5700,0.232266
686.0521,0.232613
686.5342,0.232981
687.0164,0.233352
687.4985,0.233681
687.9806,0.233915
688.4627,0.234029
688.9448,0.234028
689.4269,0.233950
689.9091,0.233838
690.3912,0.233722
690.8733,0.233607
691.3554,0.233477
691.8375,0.233311
692.3196,0.233100
692.8018,0.232856
693.2839,0.232608
693.7660,0.232380
694.2481,0.232185
694.7302,0.232015
695.2123,0.231848
695.6945,0.231718
696.1766,0.231653
696.6587,0.231574
697.1408,0.231309
697.6229,0.230620
698.1050,0.229221
698.5872,0.226819
699.0693,0.223147
699.5514,0.218000
700.0335,0.211281
700.5156,0.203050
700.9977,0.193467
701.4799,0.182813
701.9620,0.171627
702.4441,0.160599
702.9262,0.150201
703.4083,0.140476
703.8904,0.131201
704.3726,0.122103
704.8547,0.112910
705.3368,0.103356
705.8189,0.093255
706.3010,0.082650
706.7831,0.071888
707.2653,0.061023
707.7474,0.050691
708.2295,0.041659
708.7116,0.034474
709.1937,0.029560
709.6758,0.027152
710.1580,0.027215
710.6401,0.029459
711.1222,0.033388
711.6043,0.038341
712.0864,0.043502
712.5685,0.048923
713.0507,0.054538
713.5328,0.059747
714.0149,0.064103
714.4970,0.067320
714.9791,0.069286
715.4612,0.070060
715.9434,0.069836
716.4255,0.068891
716.9076,0.067504
717.3897,0.065879
717.8718,0.064080
718.3539,0.062063
718.8361,0.060056
719.3182,0.058348
719.8003,0.057217
720.2824,0.056848
720.7645,0.057284
721.2466,0.058404
721.7288,0.059967
722.2109,0.061680
722.6930,0.063284
723.1751,0.064617
723.6572,0.065642
724.1393,0.066415
724.6215,0.067042
725.1036,0.067621
725.5857,0.068213
726.0678,0.068831
726.5499,0.069456
727.0320,0.070061
727.5142,0.070626
727.9963,0.071143
728.4784,0.071614
728.9605,0.072037
729.4426,0.072405
729.9247,0.072709
730.4069,0.072944
730.8890,0.073117
731.3711,0.073249
731.8532,0.073368
732.3353,0.073491
732.8174,0.073621
733.2996,0.073702
733.7817,0.073614
734.2638,0.073586
734.7459,0.073774
735.2280,0.074266
735.7101,0.075075
736.1923,0.076144
736.6744,0.077348
737.1565,0.078515
737.6386,0.079451
738.1207,0.079972
738.6028,0.080023
739.0850,0.079915
739.5671,0.079811
740.0492,0.079867
740.5313,0.080201
741.0134,0.080882
741.4955,0.081936
741.9777,0.083352
742.4598,0.085100
742.9419,0.087136
743.4240,0.089402
743.9061,0.091830
744.3882,0.094333
744.8704,0.096809
745.3525,0.099145
745.8346,0.101225
746.3167,0.102930
746.7988,0.104149
747.2809,0.104787
747.7631,0.104785
748.2452,0.104154
748.7273,0.103006
749.2094,0.101574
749.6915,0.100207
750.1736,0.099322
750.6558,0.099243
751.1379,0.100317
751.6200,0.102784
752.1021,0.106687
752.5842,0.111840
753.0663,0.117858
753.5485,0.124234
754.0306,0.130442
754.5127,0.136017
754.9948,0.140604
755.4769,0.143961
755.9590,0.146132
756.4412,0.147288
756.9233,0.147659
757.4054,0.147471
757.8875,0.146922
758.3696,0.146151
758.8517,0.145256
759.3339,0.144302
759.8160,0.143329
760.2981,0.142355
760.7802,0.141374
761.2623,0.140372
761.7444,0.139328
762.2266,0.138231
762.7087,0.137085
763.1908,0.135895
763.6729,0.134681
764.1550,0.133463
764.6371,0.132247
765.1193,0.131026
765.6014,0.129772
766.0835,0.128449
766.5656,0.127019
767.0477,0.125454
767.5298,0.123736
768.0120,0.121860
768.4941,0.119824
768.9762,0.117632
769.4583,0.115290
769.9404,0.112816
770.4225,0.110248
770.9047,0.107648
771.3868,0.105104
771.8689,0.102717
772.3510,0.100584
772.8331,0.098779
773.3152,0.096388
773.7974,0.094510
774.2795,0.094248
774.7616,0.096280
775.2437,0.100781
775.7258,0.107314
776.2079,0.114711
776.6901,0.121827
777.1722,0.127547
777.6543,0.130794
778.1364,0.130526
778.6185,0.128128
779.1006,0.124505
779.5828,0.120383
780.0649,0.116254
780.5470,0.112204
781.0291,0.107967
781.5112,0.103559
781.9933,0.098987
782.4755,0.094262
782.9576,0.089398
783.4397,0.084418
783.9218,0.079355
784.4039,0.074252
784.8860,0.069172
785.3682,0.064203
785.8503,0.059466
786.3324,0.055119
786.8145,0.051343
787.2966,0.048323
787.7787,0.046219
788.2609,0.045133
788.7430,0.045092
789.2251,0.046043
789.7072,0.047868
790.1893,0.050413
790.6714,0.053518
791.1536,0.057050
791.6357,0.060918
792.1178,0.065075
792.5999,0.069507
793.0820,0.074212
793.5641,0.079175
794.0463,0.084341
794.5284,0.089605
795.0105,0.094807
795.4926,0.099750
795.9747,0.104224
796.4568,0.108046
796.9390,0.111096
797.4211,0.113339
797.9032,0.114837
798.3853,0.115735
798.8674,0.116232
799.3495,0.116546
799.8317,0.116874
800.3138,0.117366
800.7959,0.118105
801.2780,0.119107
801.7601,0.120323
802.2422,0.121660
802.7244,0.122994
803.2065,0.124189
803.6886,0.125114
804.1707,0.125658
804.6528,0.125732
805.1349,0.125273
805.6171,0.124243
806.0992,0.122616
806.5813,0.120373
807.0634,0.117482
807.5455,0.113887
808.0276,0.109492
808.5098,0.104156
808.9919,0.097707
809.4740,0.089966
809.9561,0.080809
810.4382,0.070237
810.9203,0.058449
811.4025,0.045896
811.8846,0.033292
812.3667,0.021564
812.8489,0.011747
813.3309,0.004823
813.8131,0.001559
814.2952,0.002357
814.7773,0.007189
815.2594,0.015603
815.7416,0.026827
816.2236,0.039914
816.7058,0.053909
817.1879,0.067982
817.6700,0.081505
818.1521,0.094072
818.6343,0.105462
819.1163,0.115590
819.5985,0.124451
820.0806,0.132101
820.5627,0.138635
821.0448,0.144190
821.5270,0.148938
822.0090,0.153064
822.4912,0.156745
822.9733,0.160125
823.4554,0.163303
823.9375,0.166333
824.4197,0.169233
824.9017,0.172005
825.3839,0.174649
825.8660,0.177170
826.3481,0.179576
826.8302,0.181880
827.3124,0.184091
827.7944,0.186220
828.2766,0.188279
828.7587,0.190283
829.2408,0.192252
829.7229,0.194200
830.2051,0.196139
830.6871,0.198068
831.1693,0.199984
831.6514,0.201883
832.1335,0.203768
832.6156,0.205659
833.0978,0.207583
833.5798,0.209576
834.0620,0.211665
834.5441,0.213865
835.0262,0.216174
835.5083,0.218576
835.9905,0.221054
836.4725,0.223592
836.9547,0.226187
837.4368,0.228848
837.9189,0.231595
838.4010,0.234455
838.8832,0.237460
839.3652,0.240647
839.8474,0.244051
840.3295,0.247710
840.8116,0.251658
841.2937,0.255924
841.7759,0.260532
842.2579,0.265501
842.7401,0.270851
843.2222,0.276608
843.7043,0.282802
844.1864,0.289474
844.6686,0.296668
845.1506,0.304435
845.6328,0.312826
846.1149,0.321898
846.5970,0.331711
847.0791,0.342330
847.5613,0.353812
848.0433,0.366263
848.5255,0.379964
849.0076,0.394687
849.4897,0.409818
849.9718,0.424550
850.4540,0.438075
850.9360,0.449766
851.4182,0.459292
851.9003,0.466680
852.3824,0.472316
852.8645,0.476938
853.3467,0.481449
853.8287,0.486229
854.3109,0.491445
854.7930,0.497100
855.2751,0.503088
855.7572,0.509229
856.2394,0.515279
856.7214,0.520939
857.2036,0.525870
857.6857,0.529730
858.1678,0.532215
858.6499,0.533091
859.1321,0.532207
859.6141,0.529481
860.0963,0.524880
860.5784,0.518412
861.0605,0.510124
861.5426,0.500121
862.0248,0.488576
862.5068,0.475355
862.9890,0.460949
863.4711,0.446242
863.9532,0.431899
864.4353,0.418367
864.9175,0.405901
865.3995,0.394597
865.8817,0.384416
866.3638,0.375196
866.8459,0.366629
867.3280,0.358239
867.8102,0.350266
868.2922,0.343044
868.7744,0.336622
869.2565,0.331021
869.7386,0.326234
870.2207,0.322227
870.7029,0.318927
871.1849,0.316224
871.6671,0.313986
872.1492,0.312086
872.6313,0.310465
873.1134,0.309285
873.5956,0.308938
874.0776,0.309995
874.5598,0.313102
875.0419,0.318831
875.5240,0.327532
876.0061,0.339229
876.4883,0.353586
876.9703,0.369956
877.4525,0.387539
877.9346,0.405596
878.4167,0.423503
878.8988,0.440794
879.3810,0.457129
879.8630,0.472241
880.3452,0.485869
880.8273,0.497720
881.3094,0.507476
881.7915,0.514825
882.2737,0.519507
882.7557,0.521359
883.2379,0.520327
883.7200,0.516480
884.2021,0.509981
884.6842,0.501074
885.1664,0.490046
885.6484,0.477196
886.1306,0.462808
886.6127,0.447128
887.0948,0.430363
887.5769,0.412685
888.0591,0.394263
888.5411,0.375282
889.0233,0.355961
889.5054,0.336552
889.9875,0.317319
890.4696,0.298308
890.9518,0.279998
891.4338,0.262801
891.9160,0.247043
892.3981,0.232946
892.8802,0.220609
893.3623,0.209999
893.8445,0.200943
894.3265,0.193140
894.8087,0.186174
895.2908,0.179565
895.7729,0.173338
896.2550,0.167406
896.7372,0.161767
897.2192,0.156473
897.7014,0.151587
898.1835,0.147130
898.6656,0.143020
899.1477,0.139051
899.6299,0.135043
900.1119,0.130856
900.5941,0.126408
901.0762,0.121690
901.5583,0.116753
902.0404,0.111702
902.5226,0.106647
903.0046,0.101667
903.4868,0.096759
903.9689,0.091865
904.4510,0.086990
904.9331,0.082147
905.4153,0.077359
905.8973,0.072670
906.3795,0.068015
906.8616,0.063554
907.3438,0.059613
907.8258,0.056434
908.3080,0.054157
908.7900,0.052812
909.2722,0.052297
909.7543,0.052502
910.2365,0.053299
910.7185,0.054533
911.2007,0.056004
911.6828,0.057769
912.1649,0.059914
912.6470,0.062378
913.1292,0.065042
913.6113,0.067735
914.0934,0.070269
914.5755,0.072557
915.0576,0.074558
915.5397,0.076261
916.0219,0.077672
916.5040,0.078793
916.9861,0.079622
917.4682,0.080152
917.9503,0.080382
918.4324,0.080319
918.9146,0.079984
919.3967,0.079408
919.8788,0.078631
920.3609,0.077693
920.8430,0.076632
921.3251,0.075488
921.8073,0.074297
922.2894,0.073093
922.7715,0.071902
923.2536,0.070739
923.7357,0.069590
924.2178,0.068346
924.7000,0.067185
925.1821,0.066188
925.6642,0.065298
926.1463,0.064432
926.6284,0.063504
927.1105,0.062417
927.5927,0.061055
928.0748,0.059283
928.5569,0.056964
929.0390,0.054020
929.5211,0.050685
930.0032,0.047056
930.4854,0.043216
930.9675,0.039328
931.4496,0.035572
931.9317,0.032092
932.4138,0.028860
932.8959,0.025818
933.3781,0.023156
933.8602,0.021008
