wavenumber_cm1,absorbance
450.0000,0.383479
454.0000,0.438680
458.0000,0.487903
462.0000,0.531150
466.0000,0.568420
470.0000,0.599712
474.0000,0.649260
478.0000,0.674415
482.0000,0.661683
486.0000,0.618668
490.0000,0.558747
494.0000,0.504399
498.0000,0.467843
502.0000,0.388996
506.0000,0.301905
510.0000,0.241229
514.0000,0.203910
518.0000,0.159237
522.0000,0.109206
526.0000,0.071031
530.0000,0.044299
534.0000,0.028031
538.0000,0.020070
542.0000,0.015759
546.0000,0.014943
550.0000,0.016912
554.0000,0.016024
558.0000,0.015207
562.0000,0.013573
566.0000,0.012941
570.0000,0.011764
574.0000,0.012824
578.0000,0.013494
582.0000,0.013947
586.0000,0.016735
590.0000,0.017846
594.0000,0.014942
598.0000,0.014256
602.0000,0.012063
606.0000,0.009319
610.0000,0.007715
614.0000,0.007492
618.0000,0.005844
622.0000,0.004963
626.0000,0.005638
630.0000,0.004771
634.0000,0.003335
638.0000,0.002527
642.0000,0.002268
646.0000,0.001648
650.0000,0.001715
654.0000,0.003945
658.0000,0.008747
662.0000,0.018806
666.0000,0.038690
670.0000,0.074538
674.0000,0.133824
678.0000,0.223806
682.0000,0.343803
686.0000,0.481821
690.0000,0.616364
694.0000,0.714095
698.0000,0.694908
702.0000,0.654543
706.0000,0.811958
710.0000,0.921046
714.0000,0.953243
718.0000,0.952837
722.0000,0.957658
726.0000,0.982557
730.0000,1.000000
734.0000,0.966540
738.0000,0.851729
742.0000,0.800065
746.0000,0.881487
750.0000,0.796638
754.0000,0.626099
758.0000,0.436301
762.0000,0.269103
766.0000,0.148450
770.0000,0.070737
774.0000,0.028564
778.0000,0.009069
782.0000,0.003702
786.0000,0.003099
790.0000,0.003758
794.0000,0.005127
798.0000,0.006344
802.0000,0.007296
806.0000,0.005196
810.0000,0.007369
814.0000,0.009210
818.0000,0.010040
822.0000,0.010430
826.0000,0.010715
830.0000,0.011382
834.0000,0.013186
838.0000,0.015215
842.0000,0.019104
846.0000,0.025598
850.0000,0.039478
854.0000,0.051150
858.0000,0.059928
862.0000,0.066875
866.0000,0.072586
870.0000,0.075570
874.0000,0.075490
878.0000,0.072398
882.0000,0.067891
886.0000,0.062383
890.0000,0.055539
894.0000,0.046741
898.0000,0.036617
902.0000,0.028010
906.0000,0.022645
910.0000,0.020303
914.0000,0.021431
918.0000,0.027733
922.0000,0.040644
926.0000,0.061423
930.0000,0.090605
934.0000,0.127840
938.0000,0.170811
942.0000,0.215311
946.0000,0.263488
950.0000,0.309549
954.0000,0.351179
958.0000,0.388142
962.0000,0.420831
966.0000,0.447643
970.0000,0.465115
974.0000,0.472428
978.0000,0.474585
982.0000,0.477638
986.0000,0.486100
990.0000,0.488933
994.0000,0.478410
998.0000,0.453116
1002.0000,0.425021
1006.0000,0.388856
1010.0000,0.351789
1014.0000,0.326596
1018.0000,0.320115
1022.0000,0.332251
1026.0000,0.350683
1030.0000,0.367683
1034.0000,0.365388
1038.0000,0.345925
1042.0000,0.322269
1046.0000,0.298054
1050.0000,0.285999
1054.0000,0.286061
1058.0000,0.289639
1062.0000,0.284681
1066.0000,0.266509
1070.0000,0.241181
1074.0000,0.204019
1078.0000,0.163093
1082.0000,0.126062
1086.0000,0.099471
1090.0000,0.082214
1094.0000,0.069587
1098.0000,0.059067
1102.0000,0.045335
1106.0000,0.031910
1110.0000,0.022367
1114.0000,0.018133
1118.0000,0.018148
1122.0000,0.020515
1126.0000,0.022603
1130.0000,0.024394
1134.0000,0.025319
1138.0000,0.025598
1142.0000,0.025490
1146.0000,0.025105
1150.0000,0.024288
1154.0000,0.022702
1158.0000,0.020581
1162.0000,0.017939
1166.0000,0.014296
1170.0000,0.010887
1174.0000,0.007158
1178.0000,0.003936
1182.0000,0.001881
1186.0000,0.000763
1190.0000,0.000226
1194.0000,0.000131
1198.0000,0.000339
1202.0000,0.000553
1206.0000,0.000849
1210.0000,0.000981
1214.0000,0.001060
1218.0000,0.001546
1222.0000,0.002001
1226.0000,0.002313
1230.0000,0.002476
1234.0000,0.002720
1238.0000,0.002801
1242.0000,0.002920
1246.0000,0.003337
1250.0000,0.003567
1254.0000,0.004319
1258.0000,0.005225
1262.0000,0.006161
1266.0000,0.007156
1270.0000,0.008097
1274.0000,0.009185
1278.0000,0.010412
1282.0000,0.011986
1286.0000,0.013763
1290.0000,0.015376
1294.0000,0.016931
1298.0000,0.017910
1302.0000,0.018587
1306.0000,0.019086
1310.0000,0.018950
1314.0000,0.018384
1318.0000,0.017340
1322.0000,0.016369
1326.0000,0.015144
1330.0000,0.013630
1334.0000,0.012119
1338.0000,0.010452
1342.0000,0.009124
1346.0000,0.008599
1350.0000,0.008464
1354.0000,0.008490
1358.0000,0.008893
1362.0000,0.010189
1366.0000,0.012250
1370.0000,0.015609
1374.0000,0.020881
1378.0000,0.028201
1382.0000,0.039235
1386.0000,0.055435
1390.0000,0.076861
1394.0000,0.102947
1398.0000,0.131332
1402.0000,0.159021
1406.0000,0.182240
1410.0000,0.198966
1414.0000,0.206322
1418.0000,0.206832
1422.0000,0.203318
1426.0000,0.198152
1430.0000,0.191214
1434.0000,0.182238
1438.0000,0.170141
1442.0000,0.155260
1446.0000,0.138750
1450.0000,0.121915
1454.0000,0.105569
1458.0000,0.092763
1462.0000,0.084732
1466.0000,0.081407
1470.0000,0.080841
1474.0000,0.081784
1478.0000,0.084241
1482.0000,0.088198
1486.0000,0.094198
1490.0000,0.101046
1494.0000,0.107407
1498.0000,0.111560
1502.0000,0.113511
1506.0000,0.113954
1510.0000,0.115159
1514.0000,0.120627
1518.0000,0.131295
1522.0000,0.146460
1526.0000,0.161454
1530.0000,0.174448
1534.0000,0.182105
1538.0000,0.183178
1542.0000,0.178798
1546.0000,0.168806
1550.0000,0.156897
1554.0000,0.146099
1558.0000,0.136049
1562.0000,0.124501
1566.0000,0.109245
1570.0000,0.091983
1574.0000,0.073110
1578.0000,0.054638
1582.0000,0.038897
1586.0000,0.025094
1590.0000,0.015496
1594.0000,0.009533
1598.0000,0.006150
1602.0000,0.003404
1606.0000,0.001676
1610.0000,0.000743
1614.0000,0.000309
1618.0000,0.000502
1622.0000,0.000502
1626.0000,0.000382
1630.0000,0.000511
1634.0000,0.001023
1638.0000,0.001075
1642.0000,0.001069
1646.0000,0.001369
1650.0000,0.002783
1654.0000,0.005110
1658.0000,0.009253
1662.0000,0.013857
1666.0000,0.019886
1670.0000,0.025107
1674.0000,0.029546
1678.0000,0.031948
1682.0000,0.033460
1686.0000,0.034406
1690.0000,0.036118
1694.0000,0.038293
1698.0000,0.040900
1702.0000,0.042639
1706.0000,0.043143
1710.0000,0.040864
1714.0000,0.037175
1718.0000,0.032190
1722.0000,0.027103
1726.0000,0.023702
1730.0000,0.022814
1734.0000,0.022935
1738.0000,0.022739
1742.0000,0.021568
1746.0000,0.018888
1750.0000,0.015494
1754.0000,0.011656
1758.0000,0.007494
1762.0000,0.003929
1766.0000,0.002110
1770.0000,0.001455
1774.0000,0.001221
1778.0000,0.000839
1782.0000,0.000635
1786.0000,0.000574
1790.0000,0.000724
1794.0000,0.000904
1798.0000,0.000933
1802.0000,0.000907
1806.0000,0.000821
1810.0000,0.000834
1814.0000,0.000751
1818.0000,0.000566
1822.0000,0.000429
1826.0000,0.000518
1830.0000,0.000506
1834.0000,0.000550
1838.0000,0.000576
1842.0000,0.000551
1846.0000,0.000465
1850.0000,0.000486
1854.0000,0.000465
1858.0000,0.000425
1862.0000,0.000482
1866.0000,0.000574
1870.0000,0.000583
1874.0000,0.000640
1878.0000,0.000615
1882.0000,0.000541
1886.0000,0.000433
1890.0000,0.000257
1894.0000,0.000224
1898.0000,0.000196
1902.0000,0.000395
1906.0000,0.000760
1910.0000,0.000879
1914.0000,0.001084
1918.0000,0.001225
1922.0000,0.001378
1926.0000,0.001296
1930.0000,0.001052
1934.0000,0.000852
1938.0000,0.000643
1942.0000,0.000645
1946.0000,0.000745
1950.0000,0.000574
1954.0000,0.000750
1958.0000,0.000990
1962.0000,0.001289
1966.0000,0.001462
1970.0000,0.001766
1974.0000,0.001787
1978.0000,0.001793
1982.0000,0.001875
1986.0000,0.001880
1990.0000,0.001754
1994.0000,0.001678
1998.0000,0.001808
2002.0000,0.001943
2006.0000,0.002002
2010.0000,0.002220
2014.0000,0.002124
2018.0000,0.002166
2022.0000,0.002191
2026.0000,0.002339
2030.0000,0.002638
2034.0000,0.003073
2038.0000,0.003720
2042.0000,0.004127
2046.0000,0.004217
2050.0000,0.004227
2054.0000,0.004202
2058.0000,0.004080
2062.0000,0.003876
2066.0000,0.003939
2070.0000,0.004134
2074.0000,0.004114
2078.0000,0.003791
2082.0000,0.003216
2086.0000,0.002643
2090.0000,0.002406
2094.0000,0.002784
2098.0000,0.003249
2102.0000,0.003837
2106.0000,0.004701
2110.0000,0.005447
2114.0000,0.005929
2118.0000,0.006086
2122.0000,0.006058
2126.0000,0.006154
2130.0000,0.006167
2134.0000,0.006254
2138.0000,0.006104
2142.0000,0.005542
2146.0000,0.004907
2150.0000,0.004268
2154.0000,0.003841
2158.0000,0.003474
2162.0000,0.002994
2166.0000,0.002732
2170.0000,0.002504
2174.0000,0.002481
2178.0000,0.002407
2182.0000,0.002112
2186.0000,0.002080
2190.0000,0.002193
2194.0000,0.002462
2198.0000,0.002450
2202.0000,0.002313
2206.0000,0.002384
2210.0000,0.002765
2214.0000,0.002955
2218.0000,0.003301
2222.0000,0.003377
2226.0000,0.003890
2230.0000,0.004227
2234.0000,0.004260
2238.0000,0.004213
2242.0000,0.004198
2246.0000,0.004231
2250.0000,0.004604
2254.0000,0.004773
2258.0000,0.005447
2262.0000,0.006141
2266.0000,0.007177
2270.0000,0.008310
2274.0000,0.009296
2278.0000,0.009952
2282.0000,0.010130
2286.0000,0.009836
2290.0000,0.009393
2294.0000,0.008626
2298.0000,0.007935
2302.0000,0.007325
2306.0000,0.006848
2310.0000,0.006794
2314.0000,0.006407
2318.0000,0.005730
2322.0000,0.004864
2326.0000,0.004099
2330.0000,0.003540
2334.0000,0.003217
2338.0000,0.003283
2342.0000,0.003988
2346.0000,0.004716
2350.0000,0.005608
2354.0000,0.006141
2358.0000,0.006570
2362.0000,0.006641
2366.0000,0.006662
2370.0000,0.006433
2374.0000,0.006011
2378.0000,0.005554
2382.0000,0.005082
2386.0000,0.004329
2390.0000,0.003714
2394.0000,0.003323
2398.0000,0.003099
2402.0000,0.003047
2406.0000,0.003041
2410.0000,0.003332
2414.0000,0.003785
2418.0000,0.004453
2422.0000,0.005114
2426.0000,0.005889
2430.0000,0.006785
2434.0000,0.007920
2438.0000,0.009109
2442.0000,0.010189
2446.0000,0.011211
2450.0000,0.012367
2454.0000,0.013453
2458.0000,0.014411
2462.0000,0.014649
2466.0000,0.014495
2470.0000,0.014230
2474.0000,0.013431
2478.0000,0.012498
2482.0000,0.011127
2486.0000,0.009871
2490.0000,0.008556
2494.0000,0.007323
2498.0000,0.006496
2502.0000,0.005922
2506.0000,0.006032
2510.0000,0.007133
2514.0000,0.008921
2518.0000,0.011335
2522.0000,0.013986
2526.0000,0.016906
2530.0000,0.019396
2534.0000,0.021503
2538.0000,0.023322
2542.0000,0.024429
2546.0000,0.024781
2550.0000,0.024583
2554.0000,0.024049
2558.0000,0.022937
2562.0000,0.021327
2566.0000,0.019393
2570.0000,0.017300
2574.0000,0.015552
2578.0000,0.014154
2582.0000,0.012913
2586.0000,0.012127
2590.0000,0.011584
2594.0000,0.011382
2598.0000,0.011129
2602.0000,0.010557
2606.0000,0.009645
2610.0000,0.008545
2614.0000,0.007224
2618.0000,0.005938
2622.0000,0.004546
2626.0000,0.003574
2630.0000,0.002702
2634.0000,0.002017
2638.0000,0.001424
2642.0000,0.000830
2646.0000,0.000379
2650.0000,0.000089
2654.0000,0.000000
2658.0000,0.000330
2662.0000,0.000980
2666.0000,0.002116
2670.0000,0.003179
2674.0000,0.004384
2678.0000,0.005270
2682.0000,0.005885
2686.0000,0.006395
2690.0000,0.006625
2694.0000,0.006779
2698.0000,0.006832
2702.0000,0.006828
2706.0000,0.006598
2710.0000,0.006285
2714.0000,0.005847
2718.0000,0.005301
2722.0000,0.004822
2726.0000,0.004475
2730.0000,0.004038
2734.0000,0.003903
2738.0000,0.003770
2742.0000,0.003814
2746.0000,0.004039
2750.0000,0.004515
2754.0000,0.005021
2758.0000,0.005840
2762.0000,0.006622
2766.0000,0.007250
2770.0000,0.007681
2774.0000,0.008170
2778.0000,0.008557
2782.0000,0.009343
2786.0000,0.010163
2790.0000,0.010995
2794.0000,0.011545
2798.0000,0.011794
2802.0000,0.011727
2806.0000,0.011319
2810.0000,0.010654
2814.0000,0.009976
2818.0000,0.009325
2822.0000,0.009020
2826.0000,0.008467
2830.0000,0.008156
2834.0000,0.007554
2838.0000,0.007092
2842.0000,0.006834
2846.0000,0.006901
2850.0000,0.006952
2854.0000,0.007264
2858.0000,0.007623
2862.0000,0.008070
2866.0000,0.008349
2870.0000,0.008646
2874.0000,0.008535
2878.0000,0.008449
2882.0000,0.008221
2886.0000,0.007836
2890.0000,0.007450
2894.0000,0.007319
2898.0000,0.007301
2902.0000,0.007435
2906.0000,0.007591
2910.0000,0.007862
2914.0000,0.008409
2918.0000,0.009072
2922.0000,0.009855
2926.0000,0.010579
2930.0000,0.011803
2934.0000,0.012662
2938.0000,0.013377
2942.0000,0.013815
2946.0000,0.013704
2950.0000,0.013511
2954.0000,0.013132
2958.0000,0.012386
2962.0000,0.011589
2966.0000,0.010784
2970.0000,0.009882
2974.0000,0.008740
2978.0000,0.007721
2982.0000,0.006787
2986.0000,0.005728
2990.0000,0.004795
2994.0000,0.004102
2998.0000,0.003372
3002.0000,0.003389
3006.0000,0.003722
3010.0000,0.003882
3014.0000,0.004314
3018.0000,0.004559
3022.0000,0.004796
3026.0000,0.004916
3030.0000,0.004857
3034.0000,0.004840
3038.0000,0.004711
3042.0000,0.006240
3046.0000,0.007897
3050.0000,0.009079
3054.0000,0.009703
3058.0000,0.009936
3062.0000,0.009939
3066.0000,0.009910
3070.0000,0.009713
3074.0000,0.009754
3078.0000,0.010869
3082.0000,0.013991
3086.0000,0.018682
3090.0000,0.024842
3094.0000,0.032487
3098.0000,0.041765
3102.0000,0.051890
3106.0000,0.062533
3110.0000,0.073469
3114.0000,0.084603
3118.0000,0.094795
3122.0000,0.103464
3126.0000,0.110453
3130.0000,0.114983
3134.0000,0.115738
3138.0000,0.113192
3142.0000,0.107340
3146.0000,0.098888
3150.0000,0.088190
3154.0000,0.075786
3158.0000,0.061918
3162.0000,0.047951
3166.0000,0.034932
3170.0000,0.023473
3174.0000,0.013860
3178.0000,0.007334
3182.0000,0.003423
3186.0000,0.001613
3190.0000,0.000878
3194.0000,0.000476
3198.0000,0.000346
3202.0000,0.000287
3206.0000,0.000361
3210.0000,0.000510
3214.0000,0.000561
3218.0000,0.000697
3222.0000,0.000821
3226.0000,0.000791
3230.0000,0.000851
3234.0000,0.000565
3238.0000,0.000413
3242.0000,0.000477
3246.0000,0.000534
3250.0000,0.000556
3254.0000,0.000533
3258.0000,0.000639
3262.0000,0.001145
3266.0000,0.001507
3270.0000,0.001953
3274.0000,0.002182
3278.0000,0.002179
3282.0000,0.002371
3286.0000,0.002322
3290.0000,0.002154
3294.0000,0.002124
3298.0000,0.001889
3302.0000,0.002022
3306.0000,0.002301
3310.0000,0.002512
3314.0000,0.002626
3318.0000,0.002413
3322.0000,0.002444
3326.0000,0.002786
3330.0000,0.002962
3334.0000,0.003125
3338.0000,0.002841
3342.0000,0.002540
3346.0000,0.002673
3350.0000,0.002523
3354.0000,0.002451
3358.0000,0.001936
3362.0000,0.001549
3366.0000,0.001822
3370.0000,0.001877
3374.0000,0.002164
3378.0000,0.001899
3382.0000,0.001824
3386.0000,0.002356
3390.0000,0.002511
3394.0000,0.002667
3398.0000,0.002205
3402.0000,0.001956
3406.0000,0.002126
3410.0000,0.002328
3414.0000,0.002616
3418.0000,0.002473
3422.0000,0.002924
3426.0000,0.003426
3430.0000,0.004022
3434.0000,0.004691
3438.0000,0.005136
3442.0000,0.006209
3446.0000,0.007711
3450.0000,0.009790
3454.0000,0.012098
3458.0000,0.014821
3462.0000,0.019033
3466.0000,0.024621
3470.0000,0.033241
3474.0000,0.045672
3478.0000,0.061073
3482.0000,0.079330
3486.0000,0.099762
3490.0000,0.129193
3494.0000,0.170638
3498.0000,0.229009
3502.0000,0.305169
3506.0000,0.388400
3510.0000,0.462436
3514.0000,0.529023
3518.0000,0.572450
3522.0000,0.587221
3526.0000,0.582523
3530.0000,0.573189
3534.0000,0.562817
3538.0000,0.547735
3542.0000,0.521718
3546.0000,0.473932
3550.0000,0.403133
3554.0000,0.323981
3558.0000,0.233713
3562.0000,0.145915
3566.0000,0.077795
3570.0000,0.036141
3574.0000,0.016648
3578.0000,0.008475
3582.0000,0.005893
3586.0000,0.004366
3590.0000,0.003932
3594.0000,0.003470
3598.0000,0.002937
3602.0000,0.002949
3606.0000,0.003009
3610.0000,0.002791
3614.0000,0.002341
3618.0000,0.002427
3622.0000,0.002359
3626.0000,0.002180
3630.0000,0.002282
3634.0000,0.001910
3638.0000,0.002004
3642.0000,0.001897
3646.0000,0.002280
3650.0000,0.002496
3654.0000,0.002401
3658.0000,0.002863
3662.0000,0.002927
3666.0000,0.003074
3670.0000,0.003293
3674.0000,0.003267
3678.0000,0.003213
3682.0000,0.003011
3686.0000,0.003207
3690.0000,0.003414
3694.0000,0.003155
3698.0000,0.003295
3702.0000,0.003313
3706.0000,0.003132
3710.0000,0.003146
3714.0000,0.003194
3718.0000,0.002794
3722.0000,0.002799
3726.0000,0.002659
3730.0000,0.002508
3734.0000,0.002070
3738.0000,0.001995
3742.0000,0.002136
3746.0000,0.002439
3750.0000,0.003035
3754.0000,0.003844
3758.0000,0.004573
3762.0000,0.005613
3766.0000,0.006165
3770.0000,0.006505
3774.0000,0.006663
3778.0000,0.006551
3782.0000,0.006341
3786.0000,0.005806
3790.0000,0.005165
3794.0000,0.005211
3798.0000,0.005070
3802.0000,0.004840
3806.0000,0.004684
3810.0000,0.004872
3814.0000,0.005194
3818.0000,0.005777
3822.0000,0.006406
3826.0000,0.006725
3830.0000,0.007012
3834.0000,0.007370
3838.0000,0.007275
3842.0000,0.006944
3846.0000,0.006485
3850.0000,0.005942
3854.0000,0.005953
3858.0000,0.006374
3862.0000,0.006462
3866.0000,0.006471
3870.0000,0.006343
3874.0000,0.006222
3878.0000,0.006283
3882.0000,0.006023
3886.0000,0.005434
3890.0000,0.004883
3894.0000,0.004613
3898.0000,0.004364
3902.0000,0.003685
3906.0000,0.002831
3910.0000,0.002014
3914.0000,0.001485
3918.0000,0.001709
3922.0000,0.001993
3926.0000,0.002165
3930.0000,0.002586
3934.0000,0.003384
3938.0000,0.004538
3942.0000,0.005639
3946.0000,0.006783
3950.0000,0.008040
3954.0000,0.009435
3958.0000,0.010967
3962.0000,0.012636
3966.0000,0.014442
