wavenumber_cm1,absorbance
380.0000,0.011375
381.0000,0.011505
382.0000,0.011654
383.0000,0.011825
384.0000,0.012016
385.0000,0.012227
386.0000,0.012485
387.0000,0.012752
388.0000,0.013005
389.0000,0.013275
390.0000,0.013576
391.0000,0.013917
392.0000,0.014298
393.0000,0.014710
394.0000,0.015145
395.0000,0.015587
396.0000,0.016029
397.0000,0.016471
398.0000,0.016900
399.0000,0.017320
400.0000,0.017742
401.0000,0.018186
402.0000,0.018636
403.0000,0.019053
404.0000,0.019399
405.0000,0.019873
406.0000,0.020729
407.0000,0.022056
408.0000,0.023884
409.0000,0.026208
410.0000,0.028965
411.0000,0.032040
412.0000,0.035297
413.0000,0.038548
414.0000,0.041676
415.0000,0.044834
416.0000,0.048115
417.0000,0.051584
418.0000,0.055229
419.0000,0.058733
420.0000,0.061735
421.0000,0.064487
422.0000,0.066519
423.0000,0.067795
424.0000,0.068407
425.0000,0.069542
426.0000,0.069487
427.0000,0.067068
428.0000,0.060322
429.0000,0.050325
430.0000,0.038446
431.0000,0.026460
432.0000,0.015326
433.0000,0.006457
434.0000,0.001157
435.0000,0.000258
436.0000,0.001274
437.0000,0.002844
438.0000,0.003443
439.0000,0.004428
440.0000,0.005904
441.0000,0.007309
442.0000,0.009155
443.0000,0.011787
444.0000,0.016310
445.0000,0.023302
446.0000,0.033077
447.0000,0.045558
448.0000,0.060830
449.0000,0.078861
450.0000,0.097321
451.0000,0.114518
452.0000,0.128456
453.0000,0.137485
454.0000,0.140459
455.0000,0.138186
456.0000,0.132212
457.0000,0.124365
458.0000,0.117371
459.0000,0.113225
460.0000,0.112140
461.0000,0.114845
462.0000,0.119786
463.0000,0.125868
464.0000,0.131683
465.0000,0.137586
466.0000,0.143388
467.0000,0.148955
468.0000,0.154658
469.0000,0.160417
470.0000,0.166350
471.0000,0.172192
472.0000,0.177553
473.0000,0.182047
474.0000,0.185461
475.0000,0.187735
476.0000,0.188899
477.0000,0.189185
478.0000,0.189015
479.0000,0.188604
480.0000,0.188084
481.0000,0.187820
482.0000,0.187929
483.0000,0.188373
484.0000,0.189340
485.0000,0.191189
486.0000,0.194282
487.0000,0.198065
488.0000,0.202388
489.0000,0.206412
490.0000,0.209524
491.0000,0.211618
492.0000,0.212374
493.0000,0.211777
494.0000,0.210439
495.0000,0.208927
496.0000,0.207774
497.0000,0.206918
498.0000,0.206842
499.0000,0.207263
500.0000,0.208285
501.0000,0.209769
502.0000,0.211742
503.0000,0.213971
504.0000,0.216213
505.0000,0.218190
506.0000,0.221376
507.0000,0.223340
508.0000,0.222339
509.0000,0.217339
510.0000,0.207714
511.0000,0.193730
512.0000,0.176623
513.0000,0.157573
514.0000,0.137996
515.0000,0.119632
516.0000,0.104610
517.0000,0.091074
518.0000,0.079094
519.0000,0.068515
520.0000,0.059039
521.0000,0.050666
522.0000,0.043781
523.0000,0.038070
524.0000,0.033220
525.0000,0.028974
526.0000,0.025366
527.0000,0.022292
528.0000,0.019828
529.0000,0.017865
530.0000,0.016301
531.0000,0.014912
532.0000,0.013640
533.0000,0.012351
534.0000,0.011166
535.0000,0.010131
536.0000,0.009193
537.0000,0.008349
538.0000,0.007643
539.0000,0.007089
540.0000,0.006649
541.0000,0.006293
542.0000,0.005953
543.0000,0.005678
544.0000,0.005455
545.0000,0.005267
546.0000,0.005085
547.0000,0.004947
548.0000,0.004844
549.0000,0.004794
550.0000,0.004786
551.0000,0.004810
552.0000,0.004840
553.0000,0.004900
554.0000,0.004994
555.0000,0.005195
556.0000,0.005182
557.0000,0.005145
558.0000,0.005029
559.0000,0.004829
560.0000,0.004540
561.0000,0.004144
562.0000,0.003719
563.0000,0.003362
564.0000,0.003137
565.0000,0.003051
566.0000,0.002898
567.0000,0.002941
568.0000,0.003048
569.0000,0.003202
570.0000,0.003367
571.0000,0.003517
572.0000,0.003662
573.0000,0.003830
574.0000,0.004043
575.0000,0.004315
576.0000,0.004640
577.0000,0.005057
578.0000,0.005570
579.0000,0.006156
580.0000,0.006858
581.0000,0.007677
582.0000,0.008578
583.0000,0.009656
584.0000,0.010964
585.0000,0.012572
586.0000,0.014407
587.0000,0.016636
588.0000,0.018967
589.0000,0.020715
590.0000,0.022586
591.0000,0.026708
592.0000,0.034797
593.0000,0.051234
594.0000,0.075121
595.0000,0.101707
596.0000,0.125042
597.0000,0.140832
598.0000,0.147407
599.0000,0.149253
600.0000,0.148024
601.0000,0.146712
602.0000,0.147257
603.0000,0.155766
604.0000,0.171404
605.0000,0.192622
606.0000,0.216780
607.0000,0.241940
608.0000,0.268260
609.0000,0.289529
610.0000,0.293663
611.0000,0.279404
612.0000,0.249314
613.0000,0.210178
614.0000,0.168912
615.0000,0.136030
616.0000,0.108585
617.0000,0.089106
618.0000,0.077691
619.0000,0.066373
620.0000,0.051893
621.0000,0.037698
622.0000,0.026143
623.0000,0.018629
624.0000,0.016897
625.0000,0.021265
626.0000,0.024652
627.0000,0.029535
628.0000,0.034788
629.0000,0.038715
630.0000,0.039977
631.0000,0.038356
632.0000,0.034094
633.0000,0.028026
634.0000,0.021486
635.0000,0.015788
636.0000,0.012761
637.0000,0.012233
638.0000,0.012811
639.0000,0.013559
640.0000,0.013894
641.0000,0.014185
642.0000,0.014442
643.0000,0.014692
644.0000,0.014893
645.0000,0.015081
646.0000,0.015264
647.0000,0.015307
648.0000,0.015392
649.0000,0.015686
650.0000,0.016309
651.0000,0.017305
652.0000,0.018660
653.0000,0.020379
654.0000,0.022539
655.0000,0.024700
656.0000,0.026437
657.0000,0.027399
658.0000,0.027781
659.0000,0.027664
660.0000,0.027215
661.0000,0.026587
662.0000,0.025920
663.0000,0.025463
664.0000,0.025392
665.0000,0.025403
666.0000,0.025400
667.0000,0.025323
668.0000,0.025259
669.0000,0.025228
670.0000,0.025241
671.0000,0.025289
672.0000,0.025356
673.0000,0.025435
674.0000,0.025539
675.0000,0.025670
676.0000,0.025825
677.0000,0.025992
678.0000,0.026162
679.0000,0.026339
680.0000,0.026560
681.0000,0.026860
682.0000,0.027239
683.0000,0.027706
684.0000,0.028268
685.0000,0.028892
686.0000,0.029575
687.0000,0.030311
688.0000,0.031074
689.0000,0.031868
690.0000,0.032720
691.0000,0.033617
692.0000,0.034539
693.0000,0.035476
694.0000,0.036446
695.0000,0.037466
696.0000,0.038570
697.0000,0.039758
698.0000,0.041058
699.0000,0.042486
700.0000,0.044060
701.0000,0.045700
702.0000,0.047235
703.0000,0.048910
704.0000,0.050913
705.0000,0.053344
706.0000,0.056271
707.0000,0.059751
708.0000,0.063804
709.0000,0.068378
710.0000,0.073340
711.0000,0.078448
712.0000,0.083499
713.0000,0.088567
714.0000,0.093704
715.0000,0.098978
716.0000,0.104416
717.0000,0.110261
718.0000,0.116415
719.0000,0.122522
720.0000,0.130088
721.0000,0.140136
722.0000,0.152070
723.0000,0.165130
724.0000,0.179803
725.0000,0.196604
726.0000,0.217177
727.0000,0.242939
728.0000,0.278015
729.0000,0.325378
730.0000,0.385918
731.0000,0.445740
732.0000,0.486847
733.0000,0.507230
734.0000,0.513105
735.0000,0.498884
736.0000,0.465083
737.0000,0.414597
738.0000,0.358100
739.0000,0.306987
740.0000,0.266500
741.0000,0.229886
742.0000,0.195199
743.0000,0.172735
744.0000,0.167126
745.0000,0.168490
746.0000,0.173323
747.0000,0.176334
748.0000,0.177519
749.0000,0.181078
750.0000,0.189440
751.0000,0.203723
752.0000,0.224926
753.0000,0.253400
754.0000,0.289065
755.0000,0.331373
756.0000,0.379405
757.0000,0.440250
758.0000,0.509101
759.0000,0.577926
760.0000,0.675279
761.0000,0.732062
762.0000,0.733836
763.0000,0.674169
764.0000,0.566594
765.0000,0.430111
766.0000,0.287079
767.0000,0.164705
768.0000,0.074213
769.0000,0.029285
770.0000,0.047293
771.0000,0.057469
772.0000,0.067778
773.0000,0.072237
774.0000,0.076525
775.0000,0.081391
776.0000,0.086466
777.0000,0.091691
778.0000,0.096670
779.0000,0.101704
780.0000,0.106805
781.0000,0.111954
782.0000,0.117308
783.0000,0.122289
784.0000,0.127195
785.0000,0.132308
786.0000,0.137810
787.0000,0.143888
788.0000,0.151140
789.0000,0.160238
790.0000,0.171631
791.0000,0.185518
792.0000,0.201849
793.0000,0.220788
794.0000,0.242437
795.0000,0.265689
796.0000,0.291521
797.0000,0.309403
798.0000,0.312085
799.0000,0.302301
800.0000,0.283011
801.0000,0.258559
802.0000,0.233758
803.0000,0.213924
804.0000,0.202780
805.0000,0.203016
806.0000,0.214117
807.0000,0.228936
808.0000,0.236779
809.0000,0.238247
810.0000,0.231388
811.0000,0.216140
812.0000,0.193030
813.0000,0.162181
814.0000,0.128065
815.0000,0.095458
816.0000,0.068466
817.0000,0.051450
818.0000,0.037687
819.0000,0.028366
820.0000,0.022781
821.0000,0.019795
822.0000,0.017858
823.0000,0.015232
824.0000,0.013442
825.0000,0.012376
826.0000,0.011900
827.0000,0.011794
828.0000,0.011844
829.0000,0.012172
830.0000,0.012695
831.0000,0.013270
832.0000,0.013919
833.0000,0.014737
834.0000,0.015783
835.0000,0.016909
836.0000,0.018260
837.0000,0.020029
838.0000,0.023030
839.0000,0.024956
840.0000,0.028766
841.0000,0.036898
842.0000,0.051345
843.0000,0.073499
844.0000,0.104141
845.0000,0.149167
846.0000,0.204688
847.0000,0.263114
848.0000,0.317641
849.0000,0.366410
850.0000,0.400842
851.0000,0.415699
852.0000,0.409271
853.0000,0.383467
854.0000,0.343978
855.0000,0.300558
856.0000,0.251718
857.0000,0.202764
858.0000,0.161090
859.0000,0.132382
860.0000,0.109783
861.0000,0.094817
862.0000,0.087404
863.0000,0.087052
864.0000,0.092471
865.0000,0.101411
866.0000,0.108054
867.0000,0.111957
868.0000,0.111129
869.0000,0.102138
870.0000,0.086575
871.0000,0.067157
872.0000,0.046665
873.0000,0.028442
874.0000,0.015058
875.0000,0.007584
876.0000,0.003761
877.0000,0.002623
878.0000,0.002787
879.0000,0.002549
880.0000,0.002555
881.0000,0.002898
882.0000,0.003788
883.0000,0.005660
884.0000,0.008611
885.0000,0.011538
886.0000,0.014792
887.0000,0.020306
888.0000,0.029551
889.0000,0.046364
890.0000,0.070182
891.0000,0.097921
892.0000,0.123408
893.0000,0.141796
894.0000,0.149175
895.0000,0.142060
896.0000,0.121080
897.0000,0.091891
898.0000,0.060702
899.0000,0.035193
900.0000,0.017332
901.0000,0.007023
902.0000,0.001782
903.0000,0.000498
904.0000,0.001515
905.0000,0.002683
906.0000,0.002875
907.0000,0.003130
908.0000,0.003405
909.0000,0.003861
910.0000,0.004495
911.0000,0.005364
912.0000,0.006350
913.0000,0.007643
914.0000,0.009224
915.0000,0.011173
916.0000,0.013490
917.0000,0.016014
918.0000,0.018422
919.0000,0.020551
920.0000,0.022195
921.0000,0.023250
922.0000,0.023692
923.0000,0.023636
924.0000,0.023143
925.0000,0.022774
926.0000,0.022854
927.0000,0.022626
928.0000,0.023993
929.0000,0.029471
930.0000,0.038577
931.0000,0.048811
932.0000,0.057817
933.0000,0.063836
934.0000,0.066487
935.0000,0.065917
936.0000,0.060519
937.0000,0.051476
938.0000,0.046933
939.0000,0.053051
940.0000,0.077640
941.0000,0.119770
942.0000,0.180424
943.0000,0.237504
944.0000,0.280881
945.0000,0.302343
946.0000,0.294976
947.0000,0.259280
948.0000,0.205820
949.0000,0.146679
950.0000,0.097616
951.0000,0.065089
952.0000,0.052734
953.0000,0.045115
954.0000,0.043529
955.0000,0.045171
956.0000,0.046721
957.0000,0.046386
958.0000,0.046165
959.0000,0.046144
960.0000,0.046249
961.0000,0.046471
962.0000,0.046773
963.0000,0.047111
964.0000,0.047512
965.0000,0.047950
966.0000,0.048427
967.0000,0.048734
968.0000,0.049125
969.0000,0.049493
970.0000,0.049866
971.0000,0.050235
972.0000,0.050630
973.0000,0.051038
974.0000,0.051459
975.0000,0.051911
976.0000,0.052391
977.0000,0.052917
978.0000,0.053406
979.0000,0.053930
980.0000,0.054518
981.0000,0.055227
982.0000,0.056018
983.0000,0.056874
984.0000,0.057715
985.0000,0.058475
986.0000,0.059085
987.0000,0.059531
988.0000,0.059642
989.0000,0.059500
990.0000,0.058958
991.0000,0.057993
992.0000,0.056860
993.0000,0.055895
994.0000,0.055165
995.0000,0.054799
996.0000,0.054851
997.0000,0.055336
998.0000,0.056160
999.0000,0.057280
1000.0000,0.058133
1001.0000,0.058419
1002.0000,0.057912
1003.0000,0.055838
1004.0000,0.052618
1005.0000,0.048774
1006.0000,0.044692
1007.0000,0.041299
1008.0000,0.038766
1009.0000,0.037346
1010.0000,0.036868
1011.0000,0.037069
1012.0000,0.037294
1013.0000,0.036926
1014.0000,0.036423
1015.0000,0.035740
1016.0000,0.034889
1017.0000,0.034177
1018.0000,0.033187
1019.0000,0.032050
1020.0000,0.030808
1021.0000,0.029479
1022.0000,0.028114
1023.0000,0.026779
1024.0000,0.025450
1025.0000,0.024092
1026.0000,0.022748
1027.0000,0.021441
1028.0000,0.020156
1029.0000,0.018909
1030.0000,0.017730
1031.0000,0.016636
1032.0000,0.015684
1033.0000,0.014723
1034.0000,0.013809
1035.0000,0.012932
1036.0000,0.012091
1037.0000,0.011385
1038.0000,0.010769
1039.0000,0.010245
1040.0000,0.009811
1041.0000,0.009496
1042.0000,0.009283
1043.0000,0.009037
1044.0000,0.008917
1045.0000,0.008925
1046.0000,0.009061
1047.0000,0.009408
1048.0000,0.009977
1049.0000,0.010692
1050.0000,0.011600
1051.0000,0.012666
1052.0000,0.013990
1053.0000,0.015054
1054.0000,0.015802
1055.0000,0.019413
1056.0000,0.026612
1057.0000,0.035995
1058.0000,0.046379
1059.0000,0.055627
1060.0000,0.063871
1061.0000,0.071742
1062.0000,0.078740
1063.0000,0.086757
1064.0000,0.091081
1065.0000,0.091233
1066.0000,0.086062
1067.0000,0.075838
1068.0000,0.061980
1069.0000,0.045804
1070.0000,0.030935
1071.0000,0.020381
1072.0000,0.015698
1073.0000,0.018079
1074.0000,0.021333
1075.0000,0.024263
1076.0000,0.027316
1077.0000,0.031341
1078.0000,0.036384
1079.0000,0.042270
1080.0000,0.048771
1081.0000,0.055602
1082.0000,0.061957
1083.0000,0.066282
1084.0000,0.073419
1085.0000,0.084858
1086.0000,0.100107
1087.0000,0.117680
1088.0000,0.135910
1089.0000,0.153070
1090.0000,0.167373
1091.0000,0.176527
1092.0000,0.179122
1093.0000,0.175313
1094.0000,0.169094
1095.0000,0.160130
1096.0000,0.148181
1097.0000,0.132120
1098.0000,0.114215
1099.0000,0.096531
1100.0000,0.080622
1101.0000,0.067545
1102.0000,0.058542
1103.0000,0.053724
1104.0000,0.051736
1105.0000,0.051854
1106.0000,0.052569
1107.0000,0.052223
1108.0000,0.051997
1109.0000,0.051858
1110.0000,0.051717
1111.0000,0.051738
1112.0000,0.051803
1113.0000,0.051930
1114.0000,0.052514
1115.0000,0.054088
1116.0000,0.056002
1117.0000,0.059291
1118.0000,0.064774
1119.0000,0.072948
1120.0000,0.084552
1121.0000,0.099752
1122.0000,0.116575
1123.0000,0.134280
1124.0000,0.148424
1125.0000,0.167038
1126.0000,0.172287
1127.0000,0.166457
1128.0000,0.152207
1129.0000,0.132673
1130.0000,0.112443
1131.0000,0.093253
1132.0000,0.080004
1133.0000,0.080814
1134.0000,0.094685
1135.0000,0.124187
1136.0000,0.145119
1137.0000,0.165667
1138.0000,0.189432
1139.0000,0.220443
1140.0000,0.287715
1141.0000,0.383309
1142.0000,0.499600
1143.0000,0.625448
1144.0000,0.744921
1145.0000,0.843346
1146.0000,0.911864
1147.0000,0.960039
1148.0000,0.958381
1149.0000,0.907759
1150.0000,0.833242
1151.0000,0.726920
1152.0000,0.591802
1153.0000,0.444879
1154.0000,0.304640
1155.0000,0.188324
1156.0000,0.114007
1157.0000,0.081958
1158.0000,0.058768
1159.0000,0.043886
1160.0000,0.034234
1161.0000,0.025659
1162.0000,0.014225
1163.0000,0.006151
1164.0000,0.001575
1165.0000,0.000446
1166.0000,0.002346
1167.0000,0.002625
1168.0000,0.002661
1169.0000,0.002691
1170.0000,0.002879
1171.0000,0.003188
1172.0000,0.003715
1173.0000,0.004689
1174.0000,0.006213
1175.0000,0.008299
1176.0000,0.011072
1177.0000,0.014609
1178.0000,0.018786
1179.0000,0.023411
1180.0000,0.028218
1181.0000,0.032983
1182.0000,0.037714
1183.0000,0.042465
1184.0000,0.047196
1185.0000,0.051997
1186.0000,0.057085
1187.0000,0.062585
1188.0000,0.068131
1189.0000,0.073819
1190.0000,0.080385
1191.0000,0.087789
1192.0000,0.096019
1193.0000,0.105045
1194.0000,0.114738
1195.0000,0.124728
1196.0000,0.135616
1197.0000,0.147310
1198.0000,0.158909
1199.0000,0.171428
1200.0000,0.186182
1201.0000,0.203597
1202.0000,0.222837
1203.0000,0.239131
1204.0000,0.257354
1205.0000,0.281427
1206.0000,0.331452
1207.0000,0.412380
1208.0000,0.514306
1209.0000,0.628002
1210.0000,0.742905
1211.0000,0.846264
1212.0000,0.926058
1213.0000,0.972438
1214.0000,0.992220
1215.0000,1.000000
1216.0000,0.996243
1217.0000,0.973388
1218.0000,0.924541
1219.0000,0.852382
1220.0000,0.761704
1221.0000,0.656668
1222.0000,0.548296
1223.0000,0.449823
1224.0000,0.373448
1225.0000,0.326691
1226.0000,0.292136
1227.0000,0.269065
1228.0000,0.255606
1229.0000,0.249165
1230.0000,0.246422
1231.0000,0.243608
1232.0000,0.241067
1233.0000,0.238649
1234.0000,0.234999
1235.0000,0.230778
1236.0000,0.225732
1237.0000,0.219621
1238.0000,0.212076
1239.0000,0.202848
1240.0000,0.192657
1241.0000,0.182713
1242.0000,0.173988
1243.0000,0.166225
1244.0000,0.159622
1245.0000,0.155670
1246.0000,0.155307
1247.0000,0.158841
1248.0000,0.166147
1249.0000,0.177344
1250.0000,0.191535
1251.0000,0.207138
1252.0000,0.222053
1253.0000,0.236703
1254.0000,0.247082
1255.0000,0.250517
1256.0000,0.245175
1257.0000,0.230740
1258.0000,0.208000
1259.0000,0.178350
1260.0000,0.144836
1261.0000,0.111324
1262.0000,0.081571
1263.0000,0.060007
1264.0000,0.044401
1265.0000,0.033679
1266.0000,0.027009
1267.0000,0.023125
1268.0000,0.020311
1269.0000,0.017323
1270.0000,0.015293
1271.0000,0.013614
1272.0000,0.012258
1273.0000,0.011203
1274.0000,0.010398
1275.0000,0.009962
1276.0000,0.009786
1277.0000,0.009861
1278.0000,0.010209
1279.0000,0.010780
1280.0000,0.011647
1281.0000,0.012401
1282.0000,0.013817
1283.0000,0.016035
1284.0000,0.019295
1285.0000,0.023199
1286.0000,0.028184
1287.0000,0.034806
1288.0000,0.043406
1289.0000,0.054017
1290.0000,0.066544
1291.0000,0.081627
1292.0000,0.099183
1293.0000,0.118352
1294.0000,0.136422
1295.0000,0.149093
1296.0000,0.153222
1297.0000,0.148443
1298.0000,0.136784
1299.0000,0.120852
1300.0000,0.103805
1301.0000,0.089185
1302.0000,0.079390
1303.0000,0.075289
1304.0000,0.077057
1305.0000,0.076679
1306.0000,0.071707
1307.0000,0.062697
1308.0000,0.051351
1309.0000,0.038924
1310.0000,0.026712
1311.0000,0.016256
1312.0000,0.008299
1313.0000,0.004337
1314.0000,0.004722
1315.0000,0.004208
1316.0000,0.003797
1317.0000,0.003407
1318.0000,0.004215
1319.0000,0.007130
1320.0000,0.012712
1321.0000,0.021334
1322.0000,0.032812
1323.0000,0.047870
1324.0000,0.064460
1325.0000,0.080758
1326.0000,0.095461
1327.0000,0.108369
1328.0000,0.119987
1329.0000,0.130132
1330.0000,0.139810
1331.0000,0.150160
1332.0000,0.162397
1333.0000,0.177112
1334.0000,0.193475
1335.0000,0.212561
1336.0000,0.233854
1337.0000,0.258626
1338.0000,0.283443
1339.0000,0.298663
1340.0000,0.297250
1341.0000,0.277149
1342.0000,0.243171
1343.0000,0.201297
1344.0000,0.158252
1345.0000,0.120477
1346.0000,0.093789
1347.0000,0.082809
1348.0000,0.084232
1349.0000,0.089783
1350.0000,0.094585
1351.0000,0.097925
1352.0000,0.101913
1353.0000,0.106705
1354.0000,0.112117
1355.0000,0.117451
1356.0000,0.123367
1357.0000,0.129671
1358.0000,0.136472
1359.0000,0.143994
1360.0000,0.152204
1361.0000,0.160967
1362.0000,0.170059
1363.0000,0.179535
1364.0000,0.189368
1365.0000,0.198719
1366.0000,0.206974
1367.0000,0.218429
1368.0000,0.234459
1369.0000,0.253454
1370.0000,0.273094
1371.0000,0.292297
1372.0000,0.308835
1373.0000,0.321196
1374.0000,0.328369
1375.0000,0.329134
1376.0000,0.324014
1377.0000,0.317734
1378.0000,0.310738
1379.0000,0.302408
1380.0000,0.293069
1381.0000,0.283974
1382.0000,0.274985
1383.0000,0.266743
1384.0000,0.260468
1385.0000,0.255141
1386.0000,0.247466
1387.0000,0.237538
1388.0000,0.224462
1389.0000,0.208184
1390.0000,0.189111
1391.0000,0.169348
1392.0000,0.150416
1393.0000,0.132851
1394.0000,0.117019
1395.0000,0.101393
1396.0000,0.085380
1397.0000,0.070752
1398.0000,0.057082
1399.0000,0.045113
1400.0000,0.035812
1401.0000,0.030046
1402.0000,0.027755
1403.0000,0.027431
1404.0000,0.027666
1405.0000,0.027515
1406.0000,0.027695
1407.0000,0.028847
1408.0000,0.031291
1409.0000,0.035602
1410.0000,0.042486
1411.0000,0.051283
1412.0000,0.061224
1413.0000,0.071021
1414.0000,0.079577
1415.0000,0.085759
1416.0000,0.088958
1417.0000,0.089319
1418.0000,0.086947
1419.0000,0.082266
1420.0000,0.076589
1421.0000,0.068623
1422.0000,0.058103
1423.0000,0.046198
1424.0000,0.034370
1425.0000,0.023861
1426.0000,0.012718
1427.0000,0.002690
1428.0000,0.001933
1429.0000,0.009201
1430.0000,0.022942
1431.0000,0.039593
1432.0000,0.057324
1433.0000,0.074450
1434.0000,0.089188
1435.0000,0.099658
1436.0000,0.103470
1437.0000,0.104490
1438.0000,0.109088
1439.0000,0.113863
1440.0000,0.118646
1441.0000,0.123582
1442.0000,0.128803
1443.0000,0.134438
1444.0000,0.140750
1445.0000,0.148434
1446.0000,0.149893
1447.0000,0.160568
1448.0000,0.181331
1449.0000,0.212324
1450.0000,0.253187
1451.0000,0.309071
1452.0000,0.375905
1453.0000,0.445595
1454.0000,0.509566
1455.0000,0.561208
1456.0000,0.596702
1457.0000,0.630757
1458.0000,0.655573
1459.0000,0.679792
1460.0000,0.697296
1461.0000,0.703641
1462.0000,0.690390
